Timestamp,Raw,Voltage
2025-09-21 23:53:30.590521,321,0.26
2025-09-21 23:53:30.600954,105,0.08
2025-09-21 23:53:30.611262,176,0.14
2025-09-21 23:53:30.620657,26,0.02
2025-09-21 23:53:30.629008,0,0.0
2025-09-21 23:53:30.640631,144,0.12
2025-09-21 23:53:30.651117,227,0.18
2025-09-21 23:53:30.661589,168,0.14
2025-09-21 23:53:30.670831,55,0.04
2025-09-21 23:53:30.680230,25,0.02
2025-09-21 23:53:30.689691,46,0.04
2025-09-21 23:53:30.698645,0,0.0
2025-09-21 23:53:30.709732,71,0.06
2025-09-21 23:53:30.720713,256,0.21
2025-09-21 23:53:30.731104,275,0.22
2025-09-21 23:53:30.741460,256,0.21
2025-09-21 23:53:30.751910,396,0.32
2025-09-21 23:53:30.762264,224,0.18
2025-09-21 23:53:30.772833,106,0.09
2025-09-21 23:53:30.782061,80,0.06
2025-09-21 23:53:30.792546,239,0.19
2025-09-21 23:53:30.804124,4095,3.3
2025-09-21 23:53:30.814481,655,0.53
2025-09-21 23:53:30.825884,4095,3.3
2025-09-21 23:53:30.836354,319,0.26
2025-09-21 23:53:30.846694,249,0.2
2025-09-21 23:53:30.857058,221,0.18
2025-09-21 23:53:30.866562,94,0.08
2025-09-21 23:53:30.875755,67,0.05
2025-09-21 23:53:30.886327,125,0.1
2025-09-21 23:53:30.896730,198,0.16
2025-09-21 23:53:30.907103,149,0.12
2025-09-21 23:53:30.917524,331,0.27
2025-09-21 23:53:30.928062,190,0.15
2025-09-21 23:53:30.938240,208,0.17
2025-09-21 23:53:30.948673,658,0.53
2025-09-21 23:53:30.959174,562,0.45
2025-09-21 23:53:30.969507,368,0.3
2025-09-21 23:53:30.980130,579,0.47
2025-09-21 23:53:30.990453,406,0.33
2025-09-21 23:53:31.000766,495,0.4
2025-09-21 23:53:31.011510,206,0.17
2025-09-21 23:53:31.021690,297,0.24
2025-09-21 23:53:31.032015,342,0.28
2025-09-21 23:53:31.042356,400,0.32
2025-09-21 23:53:31.052791,842,0.68
2025-09-21 23:53:31.063193,834,0.67
2025-09-21 23:53:31.073637,842,0.68
2025-09-21 23:53:31.084116,847,0.68
2025-09-21 23:53:31.094451,838,0.68
2025-09-21 23:53:31.104882,832,0.67
2025-09-21 23:53:31.115277,837,0.67
2025-09-21 23:53:31.125711,841,0.68
2025-09-21 23:53:31.136099,835,0.67
2025-09-21 23:53:31.147657,4095,3.3
2025-09-21 23:53:31.159128,4095,3.3
2025-09-21 23:53:31.170447,4095,3.3
2025-09-21 23:53:31.181982,4095,3.3
2025-09-21 23:53:31.193394,2653,2.14
2025-09-21 23:53:31.204821,1232,0.99
2025-09-21 23:53:31.216271,1304,1.05
2025-09-21 23:53:31.226690,843,0.68
2025-09-21 23:53:31.237110,837,0.67
2025-09-21 23:53:31.247501,854,0.69
2025-09-21 23:53:31.257982,841,0.68
2025-09-21 23:53:31.268350,840,0.68
2025-09-21 23:53:31.278821,833,0.67
2025-09-21 23:53:31.289210,843,0.68
2025-09-21 23:53:31.300629,4095,3.3
2025-09-21 23:53:31.312088,4095,3.3
2025-09-21 23:53:31.323565,4095,3.3
2025-09-21 23:53:31.335075,2426,1.96
2025-09-21 23:53:31.346465,1664,1.34
2025-09-21 23:53:31.356880,838,0.68
2025-09-21 23:53:31.367279,838,0.68
2025-09-21 23:53:31.377850,843,0.68
2025-09-21 23:53:31.388061,838,0.68
2025-09-21 23:53:31.398523,835,0.67
2025-09-21 23:53:31.409042,824,0.66
2025-09-21 23:53:31.419350,841,0.68
2025-09-21 23:53:31.430790,4095,3.3
2025-09-21 23:53:31.442349,4095,3.3
2025-09-21 23:53:31.453663,4095,3.3
2025-09-21 23:53:31.465252,4095,3.3
2025-09-21 23:53:31.476570,2349,1.89
2025-09-21 23:53:31.488212,1114,0.9
2025-09-21 23:53:31.499602,1072,0.86
2025-09-21 23:53:31.510007,671,0.54
2025-09-21 23:53:31.520440,537,0.43
2025-09-21 23:53:31.530762,290,0.23
2025-09-21 23:53:31.541136,293,0.24
2025-09-21 23:53:31.550874,59,0.05
2025-09-21 23:53:31.561178,144,0.12
2025-09-21 23:53:31.571462,128,0.1
2025-09-21 23:53:31.581878,304,0.24
2025-09-21 23:53:31.592176,208,0.17
2025-09-21 23:53:31.602695,245,0.2
2025-09-21 23:53:31.613182,136,0.11
2025-09-21 23:53:31.623406,128,0.1
2025-09-21 23:53:31.633831,131,0.11
2025-09-21 23:53:31.644231,176,0.14
2025-09-21 23:53:31.654775,285,0.23
2025-09-21 23:53:31.665200,211,0.17
2025-09-21 23:53:31.675458,119,0.1
2025-09-21 23:53:31.686007,163,0.13
2025-09-21 23:53:31.696439,261,0.21
2025-09-21 23:53:31.706825,159,0.13
2025-09-21 23:53:31.715104,8,0.01
2025-09-21 23:53:31.724522,95,0.08
2025-09-21 23:53:31.732729,0,0.0
2025-09-21 23:53:31.743146,197,0.16
2025-09-21 23:53:31.753579,247,0.2
2025-09-21 23:53:31.764136,254,0.2
2025-09-21 23:53:31.774384,151,0.12
2025-09-21 23:53:31.784929,169,0.14
2025-09-21 23:53:31.794180,80,0.06
2025-09-21 23:53:31.804581,101,0.08
2025-09-21 23:53:31.814011,91,0.07
2025-09-21 23:53:31.824394,112,0.09
2025-09-21 23:53:31.834988,165,0.13
2025-09-21 23:53:31.844163,77,0.06
2025-09-21 23:53:31.854681,195,0.16
2025-09-21 23:53:31.865064,197,0.16
2025-09-21 23:53:31.874476,67,0.05
2025-09-21 23:53:31.884881,143,0.12
2025-09-21 23:53:31.893105,5,0.0
2025-09-21 23:53:31.903487,120,0.1
2025-09-21 23:53:31.913960,222,0.18
2025-09-21 23:53:31.924353,165,0.13
2025-09-21 23:53:31.934877,304,0.24
2025-09-21 23:53:31.945173,400,0.32
2025-09-21 23:53:31.955649,511,0.41
2025-09-21 23:53:31.966013,439,0.35
2025-09-21 23:53:31.976383,299,0.24
2025-09-21 23:53:31.986805,286,0.23
2025-09-21 23:53:31.997287,241,0.19
2025-09-21 23:53:32.008804,4095,3.3
2025-09-21 23:53:32.019131,843,0.68
2025-09-21 23:53:32.029632,838,0.68
2025-09-21 23:53:32.041008,4095,3.3
2025-09-21 23:53:32.052530,4095,3.3
2025-09-21 23:53:32.063867,4095,3.3
2025-09-21 23:53:32.075362,4095,3.3
2025-09-21 23:53:32.086901,1998,1.61
2025-09-21 23:53:32.098200,1360,1.1
2025-09-21 23:53:32.108750,663,0.53
2025-09-21 23:53:32.119060,931,0.75
2025-09-21 23:53:32.129478,418,0.34
2025-09-21 23:53:32.139896,413,0.33
2025-09-21 23:53:32.150382,451,0.36
2025-09-21 23:53:32.160822,404,0.33
2025-09-21 23:53:32.171315,195,0.16
2025-09-21 23:53:32.181498,225,0.18
2025-09-21 23:53:32.192038,177,0.14
2025-09-21 23:53:32.202357,835,0.67
2025-09-21 23:53:32.212878,838,0.68
2025-09-21 23:53:32.223302,835,0.67
2025-09-21 23:53:32.233593,839,0.68
2025-09-21 23:53:32.244063,842,0.68
2025-09-21 23:53:32.255434,4095,3.3
2025-09-21 23:53:32.265875,827,0.67
2025-09-21 23:53:32.276265,841,0.68
2025-09-21 23:53:32.286659,840,0.68
2025-09-21 23:53:32.297159,841,0.68
2025-09-21 23:53:32.308531,4095,3.3
2025-09-21 23:53:32.320249,4095,3.3
2025-09-21 23:53:32.331581,4095,3.3
2025-09-21 23:53:32.342934,2031,1.64
2025-09-21 23:53:32.354475,2601,2.1
2025-09-21 23:53:32.365987,1391,1.12
2025-09-21 23:53:32.377311,1392,1.12
2025-09-21 23:53:32.387673,386,0.31
2025-09-21 23:53:32.398228,402,0.32
2025-09-21 23:53:32.408485,205,0.17
2025-09-21 23:53:32.418962,103,0.08
2025-09-21 23:53:32.429453,283,0.23
2025-09-21 23:53:32.439739,370,0.3
2025-09-21 23:53:32.449252,48,0.04
2025-09-21 23:53:32.459555,111,0.09
2025-09-21 23:53:32.470049,182,0.15
2025-09-21 23:53:32.480349,258,0.21
2025-09-21 23:53:32.490873,300,0.24
2025-09-21 23:53:32.501162,431,0.35
2025-09-21 23:53:32.511586,208,0.17
2025-09-21 23:53:32.522171,283,0.23
2025-09-21 23:53:32.532577,195,0.16
2025-09-21 23:53:32.541794,98,0.08
2025-09-21 23:53:32.550235,0,0.0
2025-09-21 23:53:32.560561,170,0.14
2025-09-21 23:53:32.568872,0,0.0
2025-09-21 23:53:32.578344,64,0.05
2025-09-21 23:53:32.587604,80,0.06
2025-09-21 23:53:32.598091,210,0.17
2025-09-21 23:53:32.607522,21,0.02
2025-09-21 23:53:32.616885,45,0.04
2025-09-21 23:53:32.626328,43,0.03
2025-09-21 23:53:32.635634,34,0.03
2025-09-21 23:53:32.645983,118,0.1
2025-09-21 23:53:32.656454,115,0.09
2025-09-21 23:53:32.665694,82,0.07
2025-09-21 23:53:32.676190,236,0.19
2025-09-21 23:53:32.686549,213,0.17
2025-09-21 23:53:32.696994,375,0.3
2025-09-21 23:53:32.707334,255,0.21
2025-09-21 23:53:32.717775,224,0.18
2025-09-21 23:53:32.727250,85,0.07
2025-09-21 23:53:32.736630,71,0.06
2025-09-21 23:53:32.746963,123,0.1
2025-09-21 23:53:32.756312,82,0.07
2025-09-21 23:53:32.765727,64,0.05
2025-09-21 23:53:32.775206,69,0.06
2025-09-21 23:53:32.785579,111,0.09
2025-09-21 23:53:32.794933,58,0.05
2025-09-21 23:53:32.805357,101,0.08
2025-09-21 23:53:32.815758,192,0.15
2025-09-21 23:53:32.826305,218,0.18
2025-09-21 23:53:32.836610,413,0.33
2025-09-21 23:53:32.847008,505,0.41
2025-09-21 23:53:32.857260,294,0.24
2025-09-21 23:53:32.867833,272,0.22
2025-09-21 23:53:32.878237,166,0.13
2025-09-21 23:53:32.888655,127,0.1
2025-09-21 23:53:32.899047,144,0.12
2025-09-21 23:53:32.907292,0,0.0
2025-09-21 23:53:32.916758,29,0.02
2025-09-21 23:53:32.925037,0,0.0
2025-09-21 23:53:32.935381,183,0.15
2025-09-21 23:53:32.945902,117,0.09
2025-09-21 23:53:32.956183,145,0.12
2025-09-21 23:53:32.965578,43,0.03
2025-09-21 23:53:32.975010,86,0.07
2025-09-21 23:53:32.984335,44,0.04
2025-09-21 23:53:32.994811,163,0.13
2025-09-21 23:53:33.004139,33,0.03
2025-09-21 23:53:33.013468,25,0.02
2025-09-21 23:53:33.023861,153,0.12
2025-09-21 23:53:33.034328,271,0.22
2025-09-21 23:53:33.044731,432,0.35
2025-09-21 23:53:33.055112,511,0.41
2025-09-21 23:53:33.065754,526,0.42
2025-09-21 23:53:33.076156,451,0.36
2025-09-21 23:53:33.086375,562,0.45
2025-09-21 23:53:33.096762,253,0.2
2025-09-21 23:53:33.107175,455,0.37
2025-09-21 23:53:33.117622,346,0.28
2025-09-21 23:53:33.128046,179,0.14
2025-09-21 23:53:33.138452,430,0.35
2025-09-21 23:53:33.148974,271,0.22
2025-09-21 23:53:33.159261,297,0.24
2025-09-21 23:53:33.169946,304,0.24
2025-09-21 23:53:33.180213,295,0.24
2025-09-21 23:53:33.190643,338,0.27
2025-09-21 23:53:33.201007,591,0.48
2025-09-21 23:53:33.211446,627,0.51
2025-09-21 23:53:33.221725,684,0.55
2025-09-21 23:53:33.233318,4095,3.3
2025-09-21 23:53:33.243581,842,0.68
2025-09-21 23:53:33.254150,843,0.68
2025-09-21 23:53:33.264425,839,0.68
2025-09-21 23:53:33.274851,843,0.68
2025-09-21 23:53:33.285372,842,0.68
2025-09-21 23:53:33.296742,4095,3.3
2025-09-21 23:53:33.308153,4095,3.3
2025-09-21 23:53:33.319625,4095,3.3
2025-09-21 23:53:33.331076,4095,3.3
2025-09-21 23:53:33.342585,4095,3.3
2025-09-21 23:53:33.354050,3315,2.67
2025-09-21 23:53:33.365445,1621,1.31
2025-09-21 23:53:33.376960,1051,0.85
2025-09-21 23:53:33.387275,463,0.37
2025-09-21 23:53:33.397773,511,0.41
2025-09-21 23:53:33.408103,193,0.16
2025-09-21 23:53:33.418581,331,0.27
2025-09-21 23:53:33.430126,4095,3.3
2025-09-21 23:53:33.440588,838,0.68
2025-09-21 23:53:33.450810,838,0.68
2025-09-21 23:53:33.461185,837,0.67
2025-09-21 23:53:33.471745,842,0.68
2025-09-21 23:53:33.482238,842,0.68
2025-09-21 23:53:33.492472,837,0.67
2025-09-21 23:53:33.502877,838,0.68
2025-09-21 23:53:33.513413,832,0.67
2025-09-21 23:53:33.523676,839,0.68
2025-09-21 23:53:33.534194,837,0.67
2025-09-21 23:53:33.544526,839,0.68
2025-09-21 23:53:33.555117,843,0.68
2025-09-21 23:53:33.565367,841,0.68
2025-09-21 23:53:33.575776,846,0.68
2025-09-21 23:53:33.586273,848,0.68
2025-09-21 23:53:33.596561,837,0.67
2025-09-21 23:53:33.607065,843,0.68
2025-09-21 23:53:33.617444,838,0.68
2025-09-21 23:53:33.627939,842,0.68
2025-09-21 23:53:33.638231,837,0.67
2025-09-21 23:53:33.648655,844,0.68
2025-09-21 23:53:33.659213,845,0.68
2025-09-21 23:53:33.669499,835,0.67
2025-09-21 23:53:33.679960,842,0.68
2025-09-21 23:53:33.691415,4095,3.3
2025-09-21 23:53:33.702904,4095,3.3
2025-09-21 23:53:33.714380,4095,3.3
2025-09-21 23:53:33.725768,4095,3.3
2025-09-21 23:53:33.736191,118,0.1
2025-09-21 23:53:33.746510,207,0.17
2025-09-21 23:53:33.757038,295,0.24
2025-09-21 23:53:33.766323,96,0.08
2025-09-21 23:53:33.776803,303,0.24
2025-09-21 23:53:33.786204,12,0.01
2025-09-21 23:53:33.796470,143,0.12
2025-09-21 23:53:33.804884,0,0.0
2025-09-21 23:53:33.815215,119,0.1
2025-09-21 23:53:33.825640,155,0.12
2025-09-21 23:53:33.836071,178,0.14
2025-09-21 23:53:33.846475,240,0.19
2025-09-21 23:53:33.856899,261,0.21
2025-09-21 23:53:33.867295,240,0.19
2025-09-21 23:53:33.877806,431,0.35
2025-09-21 23:53:33.888120,393,0.32
2025-09-21 23:53:33.898651,322,0.26
2025-09-21 23:53:33.907959,93,0.07
2025-09-21 23:53:33.917309,45,0.04
2025-09-21 23:53:33.925726,0,0.0
2025-09-21 23:53:33.934126,4,0.0
2025-09-21 23:53:33.943430,70,0.06
2025-09-21 23:53:33.952661,31,0.02
2025-09-21 23:53:33.963102,199,0.16
2025-09-21 23:53:33.973483,383,0.31
2025-09-21 23:53:33.983968,270,0.22
2025-09-21 23:53:33.994343,432,0.35
2025-09-21 23:53:34.004815,292,0.24
2025-09-21 23:53:34.015138,165,0.13
2025-09-21 23:53:34.024532,10,0.01
2025-09-21 23:53:34.033939,43,0.03
2025-09-21 23:53:34.043259,47,0.04
2025-09-21 23:53:34.052636,27,0.02
2025-09-21 23:53:34.063215,156,0.13
2025-09-21 23:53:34.073501,129,0.1
2025-09-21 23:53:34.084002,143,0.12
2025-09-21 23:53:34.093236,79,0.06
2025-09-21 23:53:34.102760,43,0.03
2025-09-21 23:53:34.113070,166,0.13
2025-09-21 23:53:34.123578,155,0.12
2025-09-21 23:53:34.133946,218,0.18
2025-09-21 23:53:34.144444,155,0.12
2025-09-21 23:53:34.154825,197,0.16
2025-09-21 23:53:34.165090,199,0.16
2025-09-21 23:53:34.175559,162,0.13
2025-09-21 23:53:34.184863,26,0.02
2025-09-21 23:53:34.195315,112,0.09
2025-09-21 23:53:34.203620,0,0.0
2025-09-21 23:53:34.212002,6,0.0
2025-09-21 23:53:34.220674,0,0.0
2025-09-21 23:53:34.232678,159,0.13
2025-09-21 23:53:34.243107,107,0.09
2025-09-21 23:53:34.253461,356,0.29
2025-09-21 23:53:34.262964,63,0.05
2025-09-21 23:53:34.271197,0,0.0
2025-09-21 23:53:34.281638,99,0.08
2025-09-21 23:53:34.291638,70,0.06
2025-09-21 23:53:34.302764,140,0.11
2025-09-21 23:53:34.313078,205,0.17
2025-09-21 23:53:34.323496,208,0.17
2025-09-21 23:53:34.333869,363,0.29
2025-09-21 23:53:34.344351,430,0.35
2025-09-21 23:53:34.354720,234,0.19
2025-09-21 23:53:34.365209,240,0.19
2025-09-21 23:53:34.375505,292,0.24
2025-09-21 23:53:34.385144,21,0.02
2025-09-21 23:53:34.395378,240,0.19
2025-09-21 23:53:34.405847,176,0.14
2025-09-21 23:53:34.416185,126,0.1
2025-09-21 23:53:34.427634,4095,3.3
2025-09-21 23:53:34.438137,145,0.12
2025-09-21 23:53:34.448434,189,0.15
2025-09-21 23:53:34.458896,409,0.33
2025-09-21 23:53:34.469208,834,0.67
2025-09-21 23:53:34.480834,4095,3.3
2025-09-21 23:53:34.492279,4095,3.3
2025-09-21 23:53:34.503661,4095,3.3
2025-09-21 23:53:34.514063,837,0.67
2025-09-21 23:53:34.524409,837,0.67
2025-09-21 23:53:34.536007,4095,3.3
2025-09-21 23:53:34.547482,4095,3.3
2025-09-21 23:53:34.558904,4095,3.3
2025-09-21 23:53:34.570356,4095,3.3
2025-09-21 23:53:34.581741,1981,1.6
2025-09-21 23:53:34.593211,1172,0.94
2025-09-21 23:53:34.603681,431,0.35
2025-09-21 23:53:34.614042,364,0.29
2025-09-21 23:53:34.624524,112,0.09
2025-09-21 23:53:34.634787,216,0.17
2025-09-21 23:53:34.645216,253,0.2
2025-09-21 23:53:34.655608,351,0.28
2025-09-21 23:53:34.666060,128,0.1
2025-09-21 23:53:34.676585,118,0.1
2025-09-21 23:53:34.686835,240,0.19
2025-09-21 23:53:34.697521,397,0.32
2025-09-21 23:53:34.707755,354,0.29
2025-09-21 23:53:34.718232,694,0.56
2025-09-21 23:53:34.728520,425,0.34
2025-09-21 23:53:34.739064,261,0.21
2025-09-21 23:53:34.749355,304,0.24
2025-09-21 23:53:34.759734,309,0.25
2025-09-21 23:53:34.770238,197,0.16
2025-09-21 23:53:34.780633,122,0.1
2025-09-21 23:53:34.789102,0,0.0
2025-09-21 23:53:34.799309,298,0.24
2025-09-21 23:53:34.808844,15,0.01
2025-09-21 23:53:34.818208,75,0.06
2025-09-21 23:53:34.826536,0,0.0
2025-09-21 23:53:34.835761,24,0.02
2025-09-21 23:53:34.844395,2,0.0
2025-09-21 23:53:34.854543,113,0.09
2025-09-21 23:53:34.865141,147,0.12
2025-09-21 23:53:34.875404,111,0.09
2025-09-21 23:53:34.884696,94,0.08
2025-09-21 23:53:34.894061,58,0.05
2025-09-21 23:53:34.903439,80,0.06
2025-09-21 23:53:34.913879,254,0.2
2025-09-21 23:53:34.924422,266,0.21
2025-09-21 23:53:34.934674,272,0.22
2025-09-21 23:53:34.945124,135,0.11
2025-09-21 23:53:34.954514,31,0.02
2025-09-21 23:53:34.963918,43,0.03
2025-09-21 23:53:34.973259,16,0.01
2025-09-21 23:53:34.983650,123,0.1
2025-09-21 23:53:34.994107,133,0.11
2025-09-21 23:53:35.004523,189,0.15
2025-09-21 23:53:35.014839,304,0.24
2025-09-21 23:53:35.025293,141,0.11
2025-09-21 23:53:35.034651,78,0.06
2025-09-21 23:53:35.043025,0,0.0
2025-09-21 23:53:35.053400,210,0.17
2025-09-21 23:53:35.063829,127,0.1
2025-09-21 23:53:35.073158,84,0.07
2025-09-21 23:53:35.081486,0,0.0
2025-09-21 23:53:35.091915,208,0.17
2025-09-21 23:53:35.101387,21,0.02
2025-09-21 23:53:35.109671,0,0.0
2025-09-21 23:53:35.120089,288,0.23
2025-09-21 23:53:35.130453,163,0.13
2025-09-21 23:53:35.140878,158,0.13
2025-09-21 23:53:35.151280,352,0.28
2025-09-21 23:53:35.161685,448,0.36
2025-09-21 23:53:35.172097,449,0.36
2025-09-21 23:53:35.182595,453,0.37
2025-09-21 23:53:35.192983,509,0.41
2025-09-21 23:53:35.203352,380,0.31
2025-09-21 23:53:35.213753,257,0.21
2025-09-21 23:53:35.224171,130,0.1
2025-09-21 23:53:35.234541,142,0.11
2025-09-21 23:53:35.244033,80,0.06
2025-09-21 23:53:35.255397,4095,3.3
2025-09-21 23:53:35.266820,4095,3.3
2025-09-21 23:53:35.278298,4095,3.3
2025-09-21 23:53:35.289745,1605,1.29
2025-09-21 23:53:35.300179,916,0.74
2025-09-21 23:53:35.310576,151,0.12
2025-09-21 23:53:35.321055,400,0.32
2025-09-21 23:53:35.331487,445,0.36
2025-09-21 23:53:35.341822,429,0.35
2025-09-21 23:53:35.352231,426,0.34
2025-09-21 23:53:35.362657,448,0.36
2025-09-21 23:53:35.373102,402,0.32
2025-09-21 23:53:35.383472,312,0.25
2025-09-21 23:53:35.392842,13,0.01
2025-09-21 23:53:35.402235,70,0.06
2025-09-21 23:53:35.412595,368,0.3
2025-09-21 23:53:35.421000,0,0.0
2025-09-21 23:53:35.430319,37,0.03
2025-09-21 23:53:35.440835,192,0.15
2025-09-21 23:53:35.450139,27,0.02
2025-09-21 23:53:35.459496,65,0.05
2025-09-21 23:53:35.468955,45,0.04
2025-09-21 23:53:35.479256,240,0.19
2025-09-21 23:53:35.487605,0,0.0
2025-09-21 23:53:35.497016,85,0.07
2025-09-21 23:53:35.506335,70,0.06
2025-09-21 23:53:35.516790,181,0.15
2025-09-21 23:53:35.527213,150,0.12
2025-09-21 23:53:35.537638,378,0.3
2025-09-21 23:53:35.548087,342,0.28
2025-09-21 23:53:35.558405,817,0.66
2025-09-21 23:53:35.568871,454,0.37
2025-09-21 23:53:35.579263,451,0.36
2025-09-21 23:53:35.589649,336,0.27
2025-09-21 23:53:35.600065,583,0.47
2025-09-21 23:53:35.610475,544,0.44
2025-09-21 23:53:35.620871,314,0.25
2025-09-21 23:53:35.631315,262,0.21
2025-09-21 23:53:35.641659,855,0.69
2025-09-21 23:53:35.652120,841,0.68
2025-09-21 23:53:35.662530,838,0.68
2025-09-21 23:53:35.672990,838,0.68
2025-09-21 23:53:35.683348,841,0.68
2025-09-21 23:53:35.693782,843,0.68
2025-09-21 23:53:35.704168,841,0.68
2025-09-21 23:53:35.714598,837,0.67
2025-09-21 23:53:35.725082,838,0.68
2025-09-21 23:53:35.735410,842,0.68
2025-09-21 23:53:35.745826,834,0.67
2025-09-21 23:53:35.756257,847,0.68
2025-09-21 23:53:35.766673,847,0.68
2025-09-21 23:53:35.778085,4095,3.3
2025-09-21 23:53:35.789551,4095,3.3
2025-09-21 23:53:35.801043,4095,3.3
2025-09-21 23:53:35.812451,3267,2.63
2025-09-21 23:53:35.823885,1776,1.43
2025-09-21 23:53:35.835398,1520,1.22
2025-09-21 23:53:35.845861,751,0.61
2025-09-21 23:53:35.856206,571,0.46
2025-09-21 23:53:35.865588,80,0.06
2025-09-21 23:53:35.876043,314,0.25
2025-09-21 23:53:35.886405,158,0.13
2025-09-21 23:53:35.896806,284,0.23
2025-09-21 23:53:35.906165,67,0.05
2025-09-21 23:53:35.916586,256,0.21
2025-09-21 23:53:35.927036,159,0.13
2025-09-21 23:53:35.936380,44,0.04
2025-09-21 23:53:35.944687,0,0.0
2025-09-21 23:53:35.955087,135,0.11
2025-09-21 23:53:35.965521,217,0.17
2025-09-21 23:53:35.976011,254,0.2
2025-09-21 23:53:35.986335,407,0.33
2025-09-21 23:53:35.996753,153,0.12
2025-09-21 23:53:36.006156,48,0.04
2025-09-21 23:53:36.017639,4095,3.3
2025-09-21 23:53:36.029107,4095,3.3
2025-09-21 23:53:36.040497,4095,3.3
2025-09-21 23:53:36.050894,901,0.73
2025-09-21 23:53:36.061330,506,0.41
2025-09-21 23:53:36.070771,59,0.05
2025-09-21 23:53:36.081237,500,0.4
2025-09-21 23:53:36.091543,209,0.17
2025-09-21 23:53:36.100946,69,0.06
2025-09-21 23:53:36.110254,96,0.08
2025-09-21 23:53:36.119585,53,0.04
2025-09-21 23:53:36.129049,48,0.04
2025-09-21 23:53:36.139385,321,0.26
2025-09-21 23:53:36.149817,138,0.11
2025-09-21 23:53:36.160352,194,0.16
2025-09-21 23:53:36.170774,443,0.36
2025-09-21 23:53:36.181211,435,0.35
2025-09-21 23:53:36.191463,350,0.28
2025-09-21 23:53:36.202001,656,0.53
2025-09-21 23:53:36.212448,571,0.46
2025-09-21 23:53:36.222829,446,0.36
2025-09-21 23:53:36.233128,379,0.31
2025-09-21 23:53:36.243536,272,0.22
2025-09-21 23:53:36.253987,250,0.2
2025-09-21 23:53:36.264357,203,0.16
2025-09-21 23:53:36.274779,128,0.1
2025-09-21 23:53:36.285205,135,0.11
2025-09-21 23:53:36.294569,30,0.02
2025-09-21 23:53:36.305154,102,0.08
2025-09-21 23:53:36.316430,1410,1.14
2025-09-21 23:53:36.328024,4095,3.3
2025-09-21 23:53:36.338294,841,0.68
2025-09-21 23:53:36.349852,4095,3.3
2025-09-21 23:53:36.361204,4095,3.3
2025-09-21 23:53:36.372695,4095,3.3
2025-09-21 23:53:36.384170,1936,1.56
2025-09-21 23:53:36.395760,2346,1.89
2025-09-21 23:53:36.406013,838,0.68
2025-09-21 23:53:36.417423,4095,3.3
2025-09-21 23:53:36.428873,4095,3.3
2025-09-21 23:53:36.440311,4095,3.3
2025-09-21 23:53:36.451789,1646,1.33
2025-09-21 23:53:36.463223,4095,3.3
2025-09-21 23:53:36.473616,839,0.68
2025-09-21 23:53:36.485232,4095,3.3
2025-09-21 23:53:36.496584,4095,3.3
2025-09-21 23:53:36.508179,4095,3.3
2025-09-21 23:53:36.519501,3930,3.17
2025-09-21 23:53:36.531019,1647,1.33
2025-09-21 23:53:36.541459,720,0.58
2025-09-21 23:53:36.551733,179,0.14
2025-09-21 23:53:36.561137,61,0.05
2025-09-21 23:53:36.571531,176,0.14
2025-09-21 23:53:36.582027,565,0.46
2025-09-21 23:53:36.592360,432,0.35
2025-09-21 23:53:36.602757,703,0.57
2025-09-21 23:53:36.614262,4095,3.3
2025-09-21 23:53:36.624758,833,0.67
2025-09-21 23:53:36.635127,833,0.67
2025-09-21 23:53:36.645578,848,0.68
2025-09-21 23:53:36.655878,689,0.56
2025-09-21 23:53:36.666268,853,0.69
2025-09-21 23:53:36.676670,838,0.68
2025-09-21 23:53:36.685199,0,0.0
2025-09-21 23:53:36.696518,4095,3.3
2025-09-21 23:53:36.708067,4095,3.3
2025-09-21 23:53:36.719362,4095,3.3
2025-09-21 23:53:36.729816,841,0.68
2025-09-21 23:53:36.740187,846,0.68
2025-09-21 23:53:36.750621,797,0.64
2025-09-21 23:53:36.761080,837,0.67
2025-09-21 23:53:36.771476,843,0.68
2025-09-21 23:53:36.783030,4095,3.3
2025-09-21 23:53:36.794372,4095,3.3
2025-09-21 23:53:36.805933,4095,3.3
2025-09-21 23:53:36.817259,4095,3.3
2025-09-21 23:53:36.828697,4095,3.3
2025-09-21 23:53:36.840133,2206,1.78
2025-09-21 23:53:36.851610,1437,1.16
2025-09-21 23:53:36.862108,499,0.4
2025-09-21 23:53:36.872409,499,0.4
2025-09-21 23:53:36.881841,97,0.08
2025-09-21 23:53:36.892211,175,0.14
2025-09-21 23:53:36.901602,96,0.08
2025-09-21 23:53:36.912356,850,0.68
2025-09-21 23:53:36.920456,0,0.0
2025-09-21 23:53:36.928675,0,0.0
2025-09-21 23:53:36.938225,50,0.04
2025-09-21 23:53:36.947427,66,0.05
2025-09-21 23:53:36.955739,0,0.0
2025-09-21 23:53:36.966171,281,0.23
2025-09-21 23:53:36.976602,240,0.19
2025-09-21 23:53:36.987162,250,0.2
2025-09-21 23:53:36.997393,130,0.1
2025-09-21 23:53:37.006778,60,0.05
2025-09-21 23:53:37.017172,249,0.2
2025-09-21 23:53:37.027582,113,0.09
2025-09-21 23:53:37.037016,78,0.06
2025-09-21 23:53:37.046362,43,0.03
2025-09-21 23:53:37.054683,0,0.0
2025-09-21 23:53:37.064119,80,0.06
2025-09-21 23:53:37.072387,0,0.0
2025-09-21 23:53:37.081733,98,0.08
2025-09-21 23:53:37.090069,0,0.0
2025-09-21 23:53:37.099500,43,0.03
2025-09-21 23:53:37.108798,48,0.04
2025-09-21 23:53:37.118213,68,0.05
2025-09-21 23:53:37.126506,5,0.0
2025-09-21 23:53:37.135875,42,0.03
2025-09-21 23:53:37.145255,28,0.02
2025-09-21 23:53:37.156702,4095,3.3
2025-09-21 23:53:37.167118,848,0.68
2025-09-21 23:53:37.178622,4095,3.3
2025-09-21 23:53:37.190069,4095,3.3
2025-09-21 23:53:37.201606,4095,3.3
2025-09-21 23:53:37.213105,4095,3.3
2025-09-21 23:53:37.224376,4095,3.3
2025-09-21 23:53:37.235849,1574,1.27
2025-09-21 23:53:37.246251,709,0.57
2025-09-21 23:53:37.256639,528,0.43
2025-09-21 23:53:37.267125,323,0.26
2025-09-21 23:53:37.277519,598,0.48
2025-09-21 23:53:37.287925,285,0.23
2025-09-21 23:53:37.298334,240,0.19
2025-09-21 23:53:37.308749,213,0.17
2025-09-21 23:53:37.319179,166,0.13
2025-09-21 23:53:37.329605,483,0.39
2025-09-21 23:53:37.340013,278,0.22
2025-09-21 23:53:37.350408,337,0.27
2025-09-21 23:53:37.360770,333,0.27
2025-09-21 23:53:37.371225,219,0.18
2025-09-21 23:53:37.381625,209,0.17
2025-09-21 23:53:37.392102,148,0.12
2025-09-21 23:53:37.402447,176,0.14
2025-09-21 23:53:37.412875,206,0.17
2025-09-21 23:53:37.423262,207,0.17
2025-09-21 23:53:37.433693,127,0.1
2025-09-21 23:53:37.444119,218,0.18
2025-09-21 23:53:37.454569,176,0.14
2025-09-21 23:53:37.464015,72,0.06
2025-09-21 23:53:37.473236,61,0.05
2025-09-21 23:53:37.481572,0,0.0
2025-09-21 23:53:37.489997,0,0.0
2025-09-21 23:53:37.498276,0,0.0
2025-09-21 23:53:37.506675,0,0.0
2025-09-21 23:53:37.517011,189,0.15
2025-09-21 23:53:37.526368,57,0.05
2025-09-21 23:53:37.534679,0,0.0
2025-09-21 23:53:37.544083,83,0.07
2025-09-21 23:53:37.553426,20,0.02
2025-09-21 23:53:37.563872,203,0.16
2025-09-21 23:53:37.574217,190,0.15
2025-09-21 23:53:37.584776,286,0.23
2025-09-21 23:53:37.595091,301,0.24
2025-09-21 23:53:37.605546,433,0.35
2025-09-21 23:53:37.616368,368,0.3
2025-09-21 23:53:37.626308,738,0.59
2025-09-21 23:53:37.636690,561,0.45
2025-09-21 23:53:37.647159,507,0.41
2025-09-21 23:53:37.657628,251,0.2
2025-09-21 23:53:37.668014,326,0.26
2025-09-21 23:53:37.678402,243,0.2
2025-09-21 23:53:37.688872,247,0.2
2025-09-21 23:53:37.699329,192,0.15
2025-09-21 23:53:37.709664,300,0.24
2025-09-21 23:53:37.719198,83,0.07
2025-09-21 23:53:37.729432,112,0.09
2025-09-21 23:53:37.739927,110,0.09
2025-09-21 23:53:37.750236,211,0.17
2025-09-21 23:53:37.760780,287,0.23
2025-09-21 23:53:37.771137,464,0.37
2025-09-21 23:53:37.781567,289,0.23
2025-09-21 23:53:37.791987,276,0.22
2025-09-21 23:53:37.802294,201,0.16
2025-09-21 23:53:37.812754,179,0.14
2025-09-21 23:53:37.822059,19,0.02
2025-09-21 23:53:37.832459,144,0.12
2025-09-21 23:53:37.842859,148,0.12
2025-09-21 23:53:37.852287,32,0.03
2025-09-21 23:53:37.861644,67,0.05
2025-09-21 23:53:37.872073,229,0.18
2025-09-21 23:53:37.882564,278,0.22
2025-09-21 23:53:37.893003,144,0.12
2025-09-21 23:53:37.903298,144,0.12
2025-09-21 23:53:37.913674,145,0.12
2025-09-21 23:53:37.923214,30,0.02
2025-09-21 23:53:37.933581,100,0.08
2025-09-21 23:53:37.941930,0,0.0
2025-09-21 23:53:37.951308,16,0.01
2025-09-21 23:53:37.960688,96,0.08
2025-09-21 23:53:37.968971,0,0.0
2025-09-21 23:53:37.978264,81,0.07
2025-09-21 23:53:37.988645,330,0.27
2025-09-21 23:53:37.999070,109,0.09
2025-09-21 23:53:38.009504,277,0.22
2025-09-21 23:53:38.019954,272,0.22
2025-09-21 23:53:38.030292,368,0.3
2025-09-21 23:53:38.040728,478,0.39
2025-09-21 23:53:38.051157,498,0.4
2025-09-21 23:53:38.061563,382,0.31
2025-09-21 23:53:38.072023,357,0.29
2025-09-21 23:53:38.082395,237,0.19
2025-09-21 23:53:38.090751,0,0.0
2025-09-21 23:53:38.099102,0,0.0
2025-09-21 23:53:38.107391,0,0.0
2025-09-21 23:53:38.115733,0,0.0
2025-09-21 23:53:38.125106,27,0.02
2025-09-21 23:53:38.135506,393,0.32
2025-09-21 23:53:38.143922,1,0.0
2025-09-21 23:53:38.153160,10,0.01
2025-09-21 23:53:38.163740,138,0.11
2025-09-21 23:53:38.174181,278,0.22
2025-09-21 23:53:38.184395,422,0.34
2025-09-21 23:53:38.194899,456,0.37
2025-09-21 23:53:38.205388,474,0.38
2025-09-21 23:53:38.215637,510,0.41
2025-09-21 23:53:38.226104,330,0.27
2025-09-21 23:53:38.236465,156,0.13
2025-09-21 23:53:38.246902,136,0.11
2025-09-21 23:53:38.255367,0,0.0
2025-09-21 23:53:38.263581,3,0.0
2025-09-21 23:53:38.271856,2,0.0
2025-09-21 23:53:38.281379,38,0.03
2025-09-21 23:53:38.289611,0,0.0
2025-09-21 23:53:38.298104,0,0.0
2025-09-21 23:53:38.308451,112,0.09
2025-09-21 23:53:38.317825,65,0.05
2025-09-21 23:53:38.328106,209,0.17
2025-09-21 23:53:38.338557,310,0.25
2025-09-21 23:53:38.349008,211,0.17
2025-09-21 23:53:38.359453,222,0.18
2025-09-21 23:53:38.369777,148,0.12
2025-09-21 23:53:38.379272,51,0.04
2025-09-21 23:53:38.388483,14,0.01
2025-09-21 23:53:38.396961,0,0.0
2025-09-21 23:53:38.407249,448,0.36
2025-09-21 23:53:38.418690,1185,0.95
2025-09-21 23:53:38.429096,165,0.13
2025-09-21 23:53:38.439537,533,0.43
2025-09-21 23:53:38.449989,578,0.47
2025-09-21 23:53:38.460617,840,0.68
2025-09-21 23:53:38.471839,1200,0.97
2025-09-21 23:53:38.482325,785,0.63
2025-09-21 23:53:38.492614,387,0.31
2025-09-21 23:53:38.503116,145,0.12
2025-09-21 23:53:38.512585,11,0.01
2025-09-21 23:53:38.522909,465,0.37
2025-09-21 23:53:38.534266,1221,0.98
2025-09-21 23:53:38.544715,206,0.17
2025-09-21 23:53:38.555225,381,0.31
2025-09-21 23:53:38.565658,586,0.47
2025-09-21 23:53:38.576030,275,0.22
2025-09-21 23:53:38.586362,901,0.73
2025-09-21 23:53:38.597855,3802,3.06
2025-09-21 23:53:38.608226,771,0.62
2025-09-21 23:53:38.619657,2486,2.0
2025-09-21 23:53:38.630088,251,0.2
2025-09-21 23:53:38.641543,2259,1.82
2025-09-21 23:53:38.652003,816,0.66
2025-09-21 23:53:38.662363,387,0.31
2025-09-21 23:53:38.673891,1765,1.42
2025-09-21 23:53:38.684223,191,0.15
2025-09-21 23:53:38.693585,77,0.06
2025-09-21 23:53:38.704073,806,0.65
2025-09-21 23:53:38.715450,4095,3.3
2025-09-21 23:53:38.726912,1868,1.51
2025-09-21 23:53:38.738353,1253,1.01
2025-09-21 23:53:38.748822,283,0.23
2025-09-21 23:53:38.759186,993,0.8
2025-09-21 23:53:38.769605,368,0.3
2025-09-21 23:53:38.780082,575,0.46
2025-09-21 23:53:38.790483,183,0.15
2025-09-21 23:53:38.802037,1896,1.53
2025-09-21 23:53:38.813447,2494,2.01
2025-09-21 23:53:38.822720,16,0.01
2025-09-21 23:53:38.834182,2624,2.11
2025-09-21 23:53:38.844648,111,0.09
2025-09-21 23:53:38.854009,65,0.05
2025-09-21 23:53:38.865427,1290,1.04
2025-09-21 23:53:38.876844,4095,3.3
2025-09-21 23:53:38.887346,112,0.09
2025-09-21 23:53:38.897661,272,0.22
2025-09-21 23:53:38.908060,656,0.53
2025-09-21 23:53:38.919622,2359,1.9
2025-09-21 23:53:38.930208,544,0.44
2025-09-21 23:53:38.941469,4095,3.3
2025-09-21 23:53:38.951916,149,0.12
2025-09-21 23:53:38.963424,1575,1.27
2025-09-21 23:53:38.974711,1008,0.81
2025-09-21 23:53:38.986246,3831,3.09
2025-09-21 23:53:38.996744,308,0.25
2025-09-21 23:53:39.008261,3577,2.88
2025-09-21 23:53:39.018490,558,0.45
2025-09-21 23:53:39.028870,402,0.32
2025-09-21 23:53:39.040364,4095,3.3
2025-09-21 23:53:39.051767,1053,0.85
2025-09-21 23:53:39.062191,444,0.36
2025-09-21 23:53:39.073778,2221,1.79
2025-09-21 23:53:39.085227,1643,1.32
2025-09-21 23:53:39.095496,404,0.33
2025-09-21 23:53:39.107137,2960,2.39
2025-09-21 23:53:39.118535,2663,2.15
2025-09-21 23:53:39.129952,4095,3.3
2025-09-21 23:53:39.140265,336,0.27
2025-09-21 23:53:39.150785,541,0.44
2025-09-21 23:53:39.161146,115,0.09
2025-09-21 23:53:39.171525,459,0.37
2025-09-21 23:53:39.182133,812,0.65
2025-09-21 23:53:39.192333,190,0.15
2025-09-21 23:53:39.202877,758,0.61
2025-09-21 23:53:39.213215,297,0.24
2025-09-21 23:53:39.223708,687,0.55
2025-09-21 23:53:39.235206,3263,2.63
2025-09-21 23:53:39.245461,855,0.69
2025-09-21 23:53:39.256884,2123,1.71
2025-09-21 23:53:39.267322,362,0.29
2025-09-21 23:53:39.278817,1439,1.16
2025-09-21 23:53:39.290253,3729,3.01
2025-09-21 23:53:39.300637,141,0.11
2025-09-21 23:53:39.312164,1271,1.02
2025-09-21 23:53:39.323682,1286,1.04
2025-09-21 23:53:39.334022,929,0.75
2025-09-21 23:53:39.344434,535,0.43
2025-09-21 23:53:39.354901,150,0.12
2025-09-21 23:53:39.366215,3242,2.61
2025-09-21 23:53:39.376875,229,0.18
2025-09-21 23:53:39.387062,906,0.73
2025-09-21 23:53:39.395371,0,0.0
2025-09-21 23:53:39.406982,1125,0.91
2025-09-21 23:53:39.417247,390,0.31
2025-09-21 23:53:39.427687,819,0.66
2025-09-21 23:53:39.439254,1745,1.41
2025-09-21 23:53:39.450712,1488,1.2
2025-09-21 23:53:39.462069,1598,1.29
2025-09-21 23:53:39.472414,144,0.12
2025-09-21 23:53:39.482975,382,0.31
2025-09-21 23:53:39.494324,1580,1.27
2025-09-21 23:53:39.505799,4095,3.3
2025-09-21 23:53:39.516163,813,0.66
2025-09-21 23:53:39.527649,1274,1.03
2025-09-21 23:53:39.539067,2679,2.16
2025-09-21 23:53:39.550526,3171,2.56
2025-09-21 23:53:39.562053,3630,2.93
2025-09-21 23:53:39.573439,1725,1.39
2025-09-21 23:53:39.583892,331,0.27
2025-09-21 23:53:39.594332,416,0.34
2025-09-21 23:53:39.605711,1245,1.0
2025-09-21 23:53:39.617180,2495,2.01
2025-09-21 23:53:39.628664,1078,0.87
2025-09-21 23:53:39.640074,3269,2.63
2025-09-21 23:53:39.651515,2138,1.72
2025-09-21 23:53:39.663060,2474,1.99
2025-09-21 23:53:39.673391,812,0.65
2025-09-21 23:53:39.681712,0,0.0
2025-09-21 23:53:39.690209,0,0.0
2025-09-21 23:53:39.701555,1597,1.29
2025-09-21 23:53:39.712134,306,0.25
2025-09-21 23:53:39.723455,1216,0.98
2025-09-21 23:53:39.733807,635,0.51
2025-09-21 23:53:39.745247,3719,3.0
2025-09-21 23:53:39.756728,1197,0.96
2025-09-21 23:53:39.767157,211,0.17
2025-09-21 23:53:39.777543,208,0.17
2025-09-21 23:53:39.787990,596,0.48
2025-09-21 23:53:39.798340,236,0.19
2025-09-21 23:53:39.809928,2343,1.89
2025-09-21 23:53:39.821391,1232,0.99
2025-09-21 23:53:39.831740,491,0.4
2025-09-21 23:53:39.842107,246,0.2
2025-09-21 23:53:39.851478,47,0.04
2025-09-21 23:53:39.863143,1895,1.53
2025-09-21 23:53:39.874344,2338,1.88
2025-09-21 23:53:39.884801,271,0.22
2025-09-21 23:53:39.895294,287,0.23
2025-09-21 23:53:39.906756,4095,3.3
2025-09-21 23:53:39.917096,642,0.52
2025-09-21 23:53:39.926420,32,0.03
2025-09-21 23:53:39.936914,583,0.47
2025-09-21 23:53:39.948340,1234,0.99
2025-09-21 23:53:39.958839,144,0.12
2025-09-21 23:53:39.969152,363,0.29
2025-09-21 23:53:39.980688,4095,3.3
2025-09-21 23:53:39.991074,950,0.77
2025-09-21 23:53:40.001420,854,0.69
2025-09-21 23:53:40.011860,542,0.44
2025-09-21 23:53:40.021259,42,0.03
2025-09-21 23:53:40.031560,697,0.56
2025-09-21 23:53:40.043211,1557,1.25
2025-09-21 23:53:40.053583,247,0.2
2025-09-21 23:53:40.063968,371,0.3
2025-09-21 23:53:40.074401,239,0.19
2025-09-21 23:53:40.084693,300,0.24
2025-09-21 23:53:40.095163,410,0.33
2025-09-21 23:53:40.105661,246,0.2
2025-09-21 23:53:40.114868,19,0.02
2025-09-21 23:53:40.124347,14,0.01
2025-09-21 23:53:40.134670,281,0.23
2025-09-21 23:53:40.144083,15,0.01
2025-09-21 23:53:40.154586,141,0.11
2025-09-21 23:53:40.162793,0,0.0
2025-09-21 23:53:40.173334,206,0.17
2025-09-21 23:53:40.183651,242,0.2
2025-09-21 23:53:40.194085,204,0.16
2025-09-21 23:53:40.204428,475,0.38
2025-09-21 23:53:40.214919,343,0.28
2025-09-21 23:53:40.225268,581,0.47
2025-09-21 23:53:40.235660,736,0.59
2025-09-21 23:53:40.246219,576,0.46
2025-09-21 23:53:40.256510,507,0.41
2025-09-21 23:53:40.267003,522,0.42
2025-09-21 23:53:40.277350,372,0.3
2025-09-21 23:53:40.287750,149,0.12
2025-09-21 23:53:40.298136,267,0.22
2025-09-21 23:53:40.308679,113,0.09
2025-09-21 23:53:40.317989,62,0.05
2025-09-21 23:53:40.328505,118,0.1
2025-09-21 23:53:40.338859,195,0.16
2025-09-21 23:53:40.349187,120,0.1
2025-09-21 23:53:40.359704,478,0.39
2025-09-21 23:53:40.370222,177,0.14
2025-09-21 23:53:40.379411,48,0.04
2025-09-21 23:53:40.388777,35,0.03
2025-09-21 23:53:40.398099,40,0.03
2025-09-21 23:53:40.408550,171,0.14
2025-09-21 23:53:40.419061,113,0.09
2025-09-21 23:53:40.429361,117,0.09
2025-09-21 23:53:40.439761,263,0.21
2025-09-21 23:53:40.449159,66,0.05
2025-09-21 23:53:40.459576,321,0.26
2025-09-21 23:53:40.470071,303,0.24
2025-09-21 23:53:40.480378,423,0.34
2025-09-21 23:53:40.490818,186,0.15
2025-09-21 23:53:40.501210,102,0.08
2025-09-21 23:53:40.511617,240,0.19
2025-09-21 23:53:40.522110,108,0.09
2025-09-21 23:53:40.532431,245,0.2
2025-09-21 23:53:40.542856,176,0.14
2025-09-21 23:53:40.553285,250,0.2
2025-09-21 23:53:40.563674,219,0.18
2025-09-21 23:53:40.574064,480,0.39
2025-09-21 23:53:40.584756,464,0.37
2025-09-21 23:53:40.595125,542,0.44
2025-09-21 23:53:40.605550,697,0.56
2025-09-21 23:53:40.615744,430,0.35
2025-09-21 23:53:40.626257,281,0.23
2025-09-21 23:53:40.636535,234,0.19
2025-09-21 23:53:40.647165,280,0.23
2025-09-21 23:53:40.656351,44,0.04
2025-09-21 23:53:40.664659,4,0.0
2025-09-21 23:53:40.673213,0,0.0
2025-09-21 23:53:40.683558,725,0.58
2025-09-21 23:53:40.693838,100,0.08
2025-09-21 23:53:40.704280,187,0.15
2025-09-21 23:53:40.713595,63,0.05
2025-09-21 23:53:40.724065,698,0.56
2025-09-21 23:53:40.734455,170,0.14
2025-09-21 23:53:40.744926,352,0.28
2025-09-21 23:53:40.755235,209,0.17
2025-09-21 23:53:40.765706,245,0.2
2025-09-21 23:53:40.775217,27,0.02
2025-09-21 23:53:40.784394,59,0.05
2025-09-21 23:53:40.793795,27,0.02
2025-09-21 23:53:40.803285,94,0.08
2025-09-21 23:53:40.811474,0,0.0
2025-09-21 23:53:40.821893,173,0.14
2025-09-21 23:53:40.831370,81,0.07
2025-09-21 23:53:40.841660,234,0.19
2025-09-21 23:53:40.851061,70,0.06
2025-09-21 23:53:40.859512,3,0.0
2025-09-21 23:53:40.867755,0,0.0
2025-09-21 23:53:40.877073,64,0.05
2025-09-21 23:53:40.887529,170,0.14
2025-09-21 23:53:40.897888,255,0.21
2025-09-21 23:53:40.908314,171,0.14
2025-09-21 23:53:40.918788,368,0.3
2025-09-21 23:53:40.929146,279,0.22
2025-09-21 23:53:40.939569,350,0.28
2025-09-21 23:53:40.949034,38,0.03
2025-09-21 23:53:40.958296,10,0.01
2025-09-21 23:53:40.966626,0,0.0
2025-09-21 23:53:40.976039,69,0.06
2025-09-21 23:53:40.985539,12,0.01
2025-09-21 23:53:40.994794,10,0.01
2025-09-21 23:53:41.003098,0,0.0
2025-09-21 23:53:41.011533,0,0.0
2025-09-21 23:53:41.021825,161,0.13
2025-09-21 23:53:41.032360,145,0.12
2025-09-21 23:53:41.042790,159,0.13
2025-09-21 23:53:41.053211,459,0.37
2025-09-21 23:53:41.063463,609,0.49
2025-09-21 23:53:41.074014,528,0.43
2025-09-21 23:53:41.084389,369,0.3
2025-09-21 23:53:41.094936,352,0.28
2025-09-21 23:53:41.105116,283,0.23
2025-09-21 23:53:41.115690,238,0.19
2025-09-21 23:53:41.123875,0,0.0
2025-09-21 23:53:41.132290,0,0.0
2025-09-21 23:53:41.142736,125,0.1
2025-09-21 23:53:41.153047,103,0.08
2025-09-21 23:53:41.162517,78,0.06
2025-09-21 23:53:41.172787,150,0.12
2025-09-21 23:53:41.181138,0,0.0
2025-09-21 23:53:41.190671,21,0.02
2025-09-21 23:53:41.198959,0,0.0
2025-09-21 23:53:41.209243,114,0.09
2025-09-21 23:53:41.219680,110,0.09
2025-09-21 23:53:41.230111,189,0.15
2025-09-21 23:53:41.240498,272,0.22
2025-09-21 23:53:41.249858,86,0.07
2025-09-21 23:53:41.260431,127,0.1
2025-09-21 23:53:41.270731,238,0.19
2025-09-21 23:53:41.280148,51,0.04
2025-09-21 23:53:41.290589,387,0.31
2025-09-21 23:53:41.300914,437,0.35
2025-09-21 23:53:41.311293,245,0.2
2025-09-21 23:53:41.321750,365,0.29
2025-09-21 23:53:41.332100,192,0.15
2025-09-21 23:53:41.342552,193,0.16
2025-09-21 23:53:41.353029,291,0.23
2025-09-21 23:53:41.363374,112,0.09
2025-09-21 23:53:41.373782,141,0.11
2025-09-21 23:53:41.384174,313,0.25
2025-09-21 23:53:41.394628,432,0.35
2025-09-21 23:53:41.405047,286,0.23
2025-09-21 23:53:41.415512,946,0.76
2025-09-21 23:53:41.425868,318,0.26
2025-09-21 23:53:41.436289,406,0.33
2025-09-21 23:53:41.446665,415,0.33
2025-09-21 23:53:41.457099,319,0.26
2025-09-21 23:53:41.467533,293,0.24
2025-09-21 23:53:41.477919,203,0.16
2025-09-21 23:53:41.488377,171,0.14
2025-09-21 23:53:41.499963,1373,1.11
2025-09-21 23:53:41.509216,79,0.06
2025-09-21 23:53:41.520636,1499,1.21
2025-09-21 23:53:41.529121,0,0.0
2025-09-21 23:53:41.539296,120,0.1
2025-09-21 23:53:41.549722,417,0.34
2025-09-21 23:53:41.560214,599,0.48
2025-09-21 23:53:41.570592,661,0.53
2025-09-21 23:53:41.581012,357,0.29
2025-09-21 23:53:41.592504,1222,0.98
2025-09-21 23:53:41.604002,1961,1.58
2025-09-21 23:53:41.614286,336,0.27
2025-09-21 23:53:41.624770,598,0.48
2025-09-21 23:53:41.636221,1109,0.89
2025-09-21 23:53:41.647733,1106,0.89
2025-09-21 23:53:41.659204,1922,1.55
2025-09-21 23:53:41.669460,257,0.21
2025-09-21 23:53:41.679912,172,0.14
2025-09-21 23:53:41.690284,851,0.69
2025-09-21 23:53:41.700737,661,0.53
2025-09-21 23:53:41.712186,2323,1.87
2025-09-21 23:53:41.722592,509,0.41
2025-09-21 23:53:41.733044,290,0.23
2025-09-21 23:53:41.743505,567,0.46
2025-09-21 23:53:41.754860,2160,1.74
2025-09-21 23:53:41.765418,432,0.35
2025-09-21 23:53:41.776939,3280,2.64
2025-09-21 23:53:41.788200,1888,1.52
2025-09-21 23:53:41.798586,250,0.2
2025-09-21 23:53:41.810203,2931,2.36
2025-09-21 23:53:41.821633,2861,2.31
2025-09-21 23:53:41.833038,2763,2.23
2025-09-21 23:53:41.844419,1665,1.34
2025-09-21 23:53:41.855987,1217,0.98
2025-09-21 23:53:41.867304,4095,3.3
2025-09-21 23:53:41.878751,1439,1.16
2025-09-21 23:53:41.889287,496,0.4
2025-09-21 23:53:41.900634,2662,2.15
2025-09-21 23:53:41.912082,2971,2.39
2025-09-21 23:53:41.922488,253,0.2
2025-09-21 23:53:41.932003,50,0.04
2025-09-21 23:53:41.943637,2775,2.24
2025-09-21 23:53:41.953733,144,0.12
2025-09-21 23:53:41.964283,320,0.26
2025-09-21 23:53:41.974649,479,0.39
2025-09-21 23:53:41.985042,971,0.78
2025-09-21 23:53:41.995441,897,0.72
2025-09-21 23:53:42.004763,74,0.06
2025-09-21 23:53:42.016187,1939,1.56
2025-09-21 23:53:42.026774,880,0.71
2025-09-21 23:53:42.038085,2226,1.79
2025-09-21 23:53:42.049652,3271,2.64
2025-09-21 23:53:42.060287,247,0.2
2025-09-21 23:53:42.070479,763,0.61
2025-09-21 23:53:42.082050,1481,1.19
2025-09-21 23:53:42.092209,560,0.45
2025-09-21 23:53:42.102756,311,0.25
2025-09-21 23:53:42.114137,1040,0.84
2025-09-21 23:53:42.124500,919,0.74
2025-09-21 23:53:42.134998,253,0.2
2025-09-21 23:53:42.146638,1335,1.08
2025-09-21 23:53:42.155712,98,0.08
2025-09-21 23:53:42.167342,1626,1.31
2025-09-21 23:53:42.177610,569,0.46
2025-09-21 23:53:42.188060,542,0.44
2025-09-21 23:53:42.198558,420,0.34
2025-09-21 23:53:42.209891,3937,3.17
2025-09-21 23:53:42.220457,990,0.8
2025-09-21 23:53:42.230686,449,0.36
2025-09-21 23:53:42.242288,2618,2.11
2025-09-21 23:53:42.253663,4095,3.3
2025-09-21 23:53:42.264134,499,0.4
2025-09-21 23:53:42.275464,3492,2.81
2025-09-21 23:53:42.285926,501,0.4
2025-09-21 23:53:42.297381,1454,1.17
2025-09-21 23:53:42.307761,919,0.74
2025-09-21 23:53:42.319360,2503,2.02
2025-09-21 23:53:42.330677,1104,0.89
2025-09-21 23:53:42.342109,2993,2.41
2025-09-21 23:53:42.352546,144,0.12
2025-09-21 23:53:42.363140,368,0.3
2025-09-21 23:53:42.374530,2735,2.2
2025-09-21 23:53:42.385853,1662,1.34
2025-09-21 23:53:42.396414,363,0.29
2025-09-21 23:53:42.406673,768,0.62
2025-09-21 23:53:42.417231,645,0.52
2025-09-21 23:53:42.427509,313,0.25
2025-09-21 23:53:42.437970,176,0.14
2025-09-21 23:53:42.448311,858,0.69
2025-09-21 23:53:42.459899,4095,3.3
2025-09-21 23:53:42.471358,2176,1.75
2025-09-21 23:53:42.482663,4095,3.3
2025-09-21 23:53:42.493227,199,0.16
2025-09-21 23:53:42.504610,2351,1.89
2025-09-21 23:53:42.516039,2133,1.72
2025-09-21 23:53:42.526418,304,0.24
2025-09-21 23:53:42.535906,93,0.07
2025-09-21 23:53:42.547304,2945,2.37
2025-09-21 23:53:42.557862,686,0.55
2025-09-21 23:53:42.568075,304,0.24
2025-09-21 23:53:42.579676,4095,3.3
2025-09-21 23:53:42.591187,3071,2.47
2025-09-21 23:53:42.601400,685,0.55
2025-09-21 23:53:42.611803,876,0.71
2025-09-21 23:53:42.623386,3177,2.56
2025-09-21 23:53:42.632676,40,0.03
2025-09-21 23:53:42.643205,945,0.76
2025-09-21 23:53:42.653435,324,0.26
2025-09-21 23:53:42.663852,440,0.35
2025-09-21 23:53:42.675349,1229,0.99
2025-09-21 23:53:42.685849,261,0.21
2025-09-21 23:53:42.697204,4095,3.3
2025-09-21 23:53:42.707709,766,0.62
2025-09-21 23:53:42.718063,157,0.13
2025-09-21 23:53:42.729465,1893,1.53
2025-09-21 23:53:42.740968,1265,1.02
2025-09-21 23:53:42.751408,944,0.76
2025-09-21 23:53:42.762767,1313,1.06
2025-09-21 23:53:42.774219,2857,2.3
2025-09-21 23:53:42.784650,182,0.15
2025-09-21 23:53:42.796107,1696,1.37
2025-09-21 23:53:42.806512,216,0.17
2025-09-21 23:53:42.818030,1964,1.58
2025-09-21 23:53:42.829444,1040,0.84
2025-09-21 23:53:42.839908,727,0.59
2025-09-21 23:53:42.849227,55,0.04
2025-09-21 23:53:42.860666,3206,2.58
2025-09-21 23:53:42.871068,688,0.55
2025-09-21 23:53:42.882579,2255,1.82
2025-09-21 23:53:42.892982,678,0.55
2025-09-21 23:53:42.904410,1009,0.81
2025-09-21 23:53:42.914932,479,0.39
2025-09-21 23:53:42.926465,3123,2.52
2025-09-21 23:53:42.937801,4095,3.3
2025-09-21 23:53:42.949303,1796,1.45
2025-09-21 23:53:42.960702,2112,1.7
2025-09-21 23:53:42.972158,1067,0.86
2025-09-21 23:53:42.983517,4095,3.3
2025-09-21 23:53:42.995322,4030,3.25
2025-09-21 23:53:43.005434,547,0.44
2025-09-21 23:53:43.015785,240,0.19
2025-09-21 23:53:43.026350,843,0.68
2025-09-21 23:53:43.037661,2087,1.68
2025-09-21 23:53:43.049257,1878,1.51
2025-09-21 23:53:43.060601,1986,1.6
2025-09-21 23:53:43.072063,1152,0.93
2025-09-21 23:53:43.083531,1373,1.11
2025-09-21 23:53:43.095100,1360,1.1
2025-09-21 23:53:43.105336,656,0.53
2025-09-21 23:53:43.115774,486,0.39
2025-09-21 23:53:43.124081,0,0.0
2025-09-21 23:53:43.135609,2800,2.26
2025-09-21 23:53:43.146167,266,0.21
2025-09-21 23:53:43.156369,167,0.13
2025-09-21 23:53:43.166793,461,0.37
2025-09-21 23:53:43.178256,1648,1.33
2025-09-21 23:53:43.189733,1727,1.39
2025-09-21 23:53:43.200096,383,0.31
2025-09-21 23:53:43.209577,21,0.02
2025-09-21 23:53:43.221011,2673,2.15
2025-09-21 23:53:43.232434,1661,1.34
2025-09-21 23:53:43.242881,151,0.12
2025-09-21 23:53:43.253191,279,0.22
2025-09-21 23:53:43.264664,1744,1.41
2025-09-21 23:53:43.276114,1015,0.82
2025-09-21 23:53:43.286626,195,0.16
2025-09-21 23:53:43.296036,87,0.07
2025-09-21 23:53:43.307334,3785,3.05
2025-09-21 23:53:43.317910,159,0.13
2025-09-21 23:53:43.328307,848,0.68
2025-09-21 23:53:43.337678,54,0.04
2025-09-21 23:53:43.345945,7,0.01
2025-09-21 23:53:43.355268,33,0.03
2025-09-21 23:53:43.365804,419,0.34
2025-09-21 23:53:43.376222,284,0.23
2025-09-21 23:53:43.385474,57,0.05
2025-09-21 23:53:43.395991,271,0.22
2025-09-21 23:53:43.406281,346,0.28
2025-09-21 23:53:43.416705,464,0.37
2025-09-21 23:53:43.427123,297,0.24
2025-09-21 23:53:43.437531,673,0.54
2025-09-21 23:53:43.448110,299,0.24
2025-09-21 23:53:43.458348,210,0.17
2025-09-21 23:53:43.468775,153,0.12
2025-09-21 23:53:43.479287,182,0.15
2025-09-21 23:53:43.489774,171,0.14
2025-09-21 23:53:43.497957,0,0.0
2025-09-21 23:53:43.507410,32,0.03
2025-09-21 23:53:43.517690,124,0.1
2025-09-21 23:53:43.527098,48,0.04
2025-09-21 23:53:43.537540,157,0.13
2025-09-21 23:53:43.547863,190,0.15
2025-09-21 23:53:43.557235,58,0.05
2025-09-21 23:53:43.566664,79,0.06
2025-09-21 23:53:43.575081,0,0.0
2025-09-21 23:53:43.584409,80,0.06
2025-09-21 23:53:43.592662,0,0.0
2025-09-21 23:53:43.603174,145,0.12
2025-09-21 23:53:43.613462,252,0.2
2025-09-21 23:53:43.622856,70,0.06
2025-09-21 23:53:43.632337,84,0.07
2025-09-21 23:53:43.642674,111,0.09
2025-09-21 23:53:43.653088,247,0.2
2025-09-21 23:53:43.663461,220,0.18
2025-09-21 23:53:43.673874,544,0.44
2025-09-21 23:53:43.684309,280,0.23
2025-09-21 23:53:43.694728,277,0.22
2025-09-21 23:53:43.705251,357,0.29
2025-09-21 23:53:43.715540,102,0.08
2025-09-21 23:53:43.726089,205,0.17
2025-09-21 23:53:43.735287,52,0.04
2025-09-21 23:53:43.743664,0,0.0
2025-09-21 23:53:43.752152,0,0.0
2025-09-21 23:53:43.760316,0,0.0
2025-09-21 23:53:43.769683,99,0.08
2025-09-21 23:53:43.780105,153,0.12
2025-09-21 23:53:43.790494,165,0.13
2025-09-21 23:53:43.799878,15,0.01
2025-09-21 23:53:43.809243,35,0.03
2025-09-21 23:53:43.817656,0,0.0
2025-09-21 23:53:43.826030,0,0.0
2025-09-21 23:53:43.835262,44,0.04
2025-09-21 23:53:43.845815,101,0.08
2025-09-21 23:53:43.856126,161,0.13
2025-09-21 23:53:43.866494,237,0.19
2025-09-21 23:53:43.876996,143,0.12
2025-09-21 23:53:43.886447,85,0.07
2025-09-21 23:53:43.894628,0,0.0
2025-09-21 23:53:43.905163,101,0.08
2025-09-21 23:53:43.914391,96,0.08
2025-09-21 23:53:43.923831,24,0.02
2025-09-21 23:53:43.932231,0,0.0
2025-09-21 23:53:43.941600,81,0.07
2025-09-21 23:53:43.950924,60,0.05
2025-09-21 23:53:43.961329,100,0.08
2025-09-21 23:53:43.970625,41,0.03
2025-09-21 23:53:43.980117,75,0.06
2025-09-21 23:53:43.989385,48,0.04
2025-09-21 23:53:43.998781,84,0.07
2025-09-21 23:53:44.009185,191,0.15
2025-09-21 23:53:44.019561,101,0.08
2025-09-21 23:53:44.030195,250,0.2
2025-09-21 23:53:44.040519,123,0.1
2025-09-21 23:53:44.050866,141,0.11
2025-09-21 23:53:44.061231,238,0.19
2025-09-21 23:53:44.071613,147,0.12
2025-09-21 23:53:44.081209,64,0.05
2025-09-21 23:53:44.090512,65,0.05
2025-09-21 23:53:44.099827,93,0.07
2025-09-21 23:53:44.110196,182,0.15
2025-09-21 23:53:44.120667,342,0.28
2025-09-21 23:53:44.131056,286,0.23
2025-09-21 23:53:44.141455,246,0.2
2025-09-21 23:53:44.151936,469,0.38
2025-09-21 23:53:44.162230,434,0.35
2025-09-21 23:53:44.172757,329,0.27
2025-09-21 23:53:44.183122,355,0.29
2025-09-21 23:53:44.193453,145,0.12
2025-09-21 23:53:44.203861,326,0.26
2025-09-21 23:53:44.212370,0,0.0
2025-09-21 23:53:44.220644,0,0.0
2025-09-21 23:53:44.229021,5,0.0
2025-09-21 23:53:44.237186,0,0.0
2025-09-21 23:53:44.247601,117,0.09
2025-09-21 23:53:44.257059,16,0.01
2025-09-21 23:53:44.265311,0,0.0
2025-09-21 23:53:44.274806,40,0.03
2025-09-21 23:53:44.285129,237,0.19
2025-09-21 23:53:44.295619,432,0.35
2025-09-21 23:53:44.306118,230,0.19
2025-09-21 23:53:44.316420,220,0.18
2025-09-21 23:53:44.326779,244,0.2
2025-09-21 23:53:44.336143,80,0.06
2025-09-21 23:53:44.346578,101,0.08
2025-09-21 23:53:44.357063,172,0.14
2025-09-21 23:53:44.367351,133,0.11
2025-09-21 23:53:44.378083,244,0.2
2025-09-21 23:53:44.388301,259,0.21
2025-09-21 23:53:44.398603,363,0.29
2025-09-21 23:53:44.409123,353,0.28
2025-09-21 23:53:44.419388,528,0.43
2025-09-21 23:53:44.429868,282,0.23
2025-09-21 23:53:44.440378,137,0.11
2025-09-21 23:53:44.449785,93,0.07
2025-09-21 23:53:44.459050,15,0.01
2025-09-21 23:53:44.469513,105,0.08
2025-09-21 23:53:44.479791,145,0.12
2025-09-21 23:53:44.488231,0,0.0
2025-09-21 23:53:44.497486,36,0.03
2025-09-21 23:53:44.505833,0,0.0
2025-09-21 23:53:44.515239,64,0.05
2025-09-21 23:53:44.524753,93,0.07
2025-09-21 23:53:44.535043,237,0.19
2025-09-21 23:53:44.545539,316,0.25
2025-09-21 23:53:44.555807,385,0.31
2025-09-21 23:53:44.566288,233,0.19
2025-09-21 23:53:44.576641,231,0.19
2025-09-21 23:53:44.587068,174,0.14
2025-09-21 23:53:44.596435,67,0.05
2025-09-21 23:53:44.605798,69,0.06
2025-09-21 23:53:44.614160,1,0.0
2025-09-21 23:53:44.622445,0,0.0
2025-09-21 23:53:44.631822,48,0.04
2025-09-21 23:53:44.641195,69,0.06
2025-09-21 23:53:44.650608,80,0.06
2025-09-21 23:53:44.658948,0,0.0
2025-09-21 23:53:44.668407,11,0.01
2025-09-21 23:53:44.677698,10,0.01
2025-09-21 23:53:44.688293,288,0.23
2025-09-21 23:53:44.697410,41,0.03
2025-09-21 23:53:44.706799,91,0.07
2025-09-21 23:53:44.717227,287,0.23
2025-09-21 23:53:44.727820,315,0.25
2025-09-21 23:53:44.738210,231,0.19
2025-09-21 23:53:44.748577,318,0.26
2025-09-21 23:53:44.758873,320,0.26
2025-09-21 23:53:44.769433,266,0.21
2025-09-21 23:53:44.779694,134,0.11
2025-09-21 23:53:44.789200,29,0.02
2025-09-21 23:53:44.797377,0,0.0
2025-09-21 23:53:44.806732,74,0.06
2025-09-21 23:53:44.817188,202,0.16
2025-09-21 23:53:44.826647,85,0.07
2025-09-21 23:53:44.837125,142,0.11
2025-09-21 23:53:44.847403,262,0.21
2025-09-21 23:53:44.857762,350,0.28
2025-09-21 23:53:44.868337,490,0.39
2025-09-21 23:53:44.878651,252,0.2
2025-09-21 23:53:44.889280,133,0.11
2025-09-21 23:53:44.898447,71,0.06
2025-09-21 23:53:44.908788,137,0.11
2025-09-21 23:53:44.919291,132,0.11
2025-09-21 23:53:44.929761,176,0.14
2025-09-21 23:53:44.939083,32,0.03
2025-09-21 23:53:44.948486,14,0.01
2025-09-21 23:53:44.958903,190,0.15
2025-09-21 23:53:44.969330,177,0.14
2025-09-21 23:53:44.979706,231,0.19
2025-09-21 23:53:44.990064,464,0.37
2025-09-21 23:53:45.000437,368,0.3
2025-09-21 23:53:45.010872,304,0.24
2025-09-21 23:53:45.021382,510,0.41
2025-09-21 23:53:45.031774,445,0.36
2025-09-21 23:53:45.042076,356,0.29
2025-09-21 23:53:45.052485,573,0.46
2025-09-21 23:53:45.063112,378,0.3
2025-09-21 23:53:45.073372,274,0.22
2025-09-21 23:53:45.083862,239,0.19
2025-09-21 23:53:45.094140,212,0.17
2025-09-21 23:53:45.104699,267,0.22
2025-09-21 23:53:45.115025,459,0.37
2025-09-21 23:53:45.125375,338,0.27
2025-09-21 23:53:45.135817,197,0.16
2025-09-21 23:53:45.146226,272,0.22
2025-09-21 23:53:45.156643,171,0.14
2025-09-21 23:53:45.168075,1390,1.12
2025-09-21 23:53:45.178470,839,0.68
2025-09-21 23:53:45.188971,561,0.45
2025-09-21 23:53:45.198284,65,0.05
2025-09-21 23:53:45.209714,2221,1.79
2025-09-21 23:53:45.220256,996,0.8
2025-09-21 23:53:45.230539,107,0.09
2025-09-21 23:53:45.241016,248,0.2
2025-09-21 23:53:45.252528,2416,1.95
2025-09-21 23:53:45.262822,400,0.32
2025-09-21 23:53:45.273352,327,0.26
2025-09-21 23:53:45.283681,291,0.23
2025-09-21 23:53:45.295152,1051,0.85
2025-09-21 23:53:45.306561,1520,1.22
2025-09-21 23:53:45.318183,1023,0.82
2025-09-21 23:53:45.328421,611,0.49
2025-09-21 23:53:45.340007,4095,3.3
2025-09-21 23:53:45.350334,158,0.13
2025-09-21 23:53:45.360770,823,0.66
2025-09-21 23:53:45.371212,609,0.49
2025-09-21 23:53:45.382563,2914,2.35
2025-09-21 23:53:45.393142,347,0.28
2025-09-21 23:53:45.404559,1439,1.16
2025-09-21 23:53:45.414918,336,0.27
2025-09-21 23:53:45.424320,86,0.07
2025-09-21 23:53:45.434623,241,0.19
2025-09-21 23:53:45.445071,157,0.13
2025-09-21 23:53:45.456493,1774,1.43
2025-09-21 23:53:45.468078,4095,3.3
2025-09-21 23:53:45.479404,3904,3.15
2025-09-21 23:53:45.490832,4095,3.3
2025-09-21 23:53:45.501410,838,0.68
2025-09-21 23:53:45.512736,1584,1.28
2025-09-21 23:53:45.524174,1603,1.29
2025-09-21 23:53:45.534709,966,0.78
2025-09-21 23:53:45.545124,875,0.71
2025-09-21 23:53:45.556556,1179,0.95
2025-09-21 23:53:45.564848,0,0.0
2025-09-21 23:53:45.576214,3711,2.99
2025-09-21 23:53:45.586794,175,0.14
2025-09-21 23:53:45.597064,241,0.19
2025-09-21 23:53:45.608650,2639,2.13
2025-09-21 23:53:45.620157,2066,1.66
2025-09-21 23:53:45.630440,576,0.46
2025-09-21 23:53:45.640784,816,0.66
2025-09-21 23:53:45.652456,3877,3.12
2025-09-21 23:53:45.662681,178,0.14
2025-09-21 23:53:45.674122,1840,1.48
2025-09-21 23:53:45.685560,1792,1.44
2025-09-21 23:53:45.694004,0,0.0
2025-09-21 23:53:45.704414,289,0.23
2025-09-21 23:53:45.714715,662,0.53
2025-09-21 23:53:45.726428,2966,2.39
2025-09-21 23:53:45.736587,595,0.48
2025-09-21 23:53:45.747143,295,0.24
2025-09-21 23:53:45.758506,2311,1.86
2025-09-21 23:53:45.767864,46,0.04
2025-09-21 23:53:45.779293,1296,1.04
2025-09-21 23:53:45.790756,2855,2.3
2025-09-21 23:53:45.801161,617,0.5
2025-09-21 23:53:45.812587,2849,2.3
2025-09-21 23:53:45.823119,295,0.24
2025-09-21 23:53:45.834521,4095,3.3
2025-09-21 23:53:45.844875,466,0.38
2025-09-21 23:53:45.856335,4095,3.3
2025-09-21 23:53:45.866792,630,0.51
2025-09-21 23:53:45.877174,884,0.71
2025-09-21 23:53:45.887610,722,0.58
2025-09-21 23:53:45.898114,542,0.44
2025-09-21 23:53:45.909452,1373,1.11
2025-09-21 23:53:45.920908,3046,2.45
2025-09-21 23:53:45.932431,1758,1.42
2025-09-21 23:53:45.943813,1142,0.92
2025-09-21 23:53:45.955363,1519,1.22
2025-09-21 23:53:45.964616,32,0.03
2025-09-21 23:53:45.975061,425,0.34
2025-09-21 23:53:45.985469,243,0.2
2025-09-21 23:53:45.995982,462,0.37
2025-09-21 23:53:46.007468,1093,0.88
2025-09-21 23:53:46.018804,2645,2.13
2025-09-21 23:53:46.030349,1156,0.93
2025-09-21 23:53:46.040710,160,0.13
2025-09-21 23:53:46.051146,930,0.75
2025-09-21 23:53:46.062625,1737,1.4
2025-09-21 23:53:46.074155,1938,1.56
2025-09-21 23:53:46.085417,1227,0.99
2025-09-21 23:53:46.096995,1919,1.55
2025-09-21 23:53:46.107411,102,0.08
2025-09-21 23:53:46.117833,192,0.15
2025-09-21 23:53:46.128096,371,0.3
2025-09-21 23:53:46.139739,1874,1.51
2025-09-21 23:53:46.150105,705,0.57
2025-09-21 23:53:46.161566,3039,2.45
2025-09-21 23:53:46.171843,292,0.24
2025-09-21 23:53:46.183386,2459,1.98
2025-09-21 23:53:46.193725,140,0.11
2025-09-21 23:53:46.204207,758,0.61
2025-09-21 23:53:46.215681,1840,1.48
2025-09-21 23:53:46.227095,2845,2.29
2025-09-21 23:53:46.237419,962,0.78
2025-09-21 23:53:46.247839,657,0.53
2025-09-21 23:53:46.259441,1421,1.15
2025-09-21 23:53:46.270880,3771,3.04
2025-09-21 23:53:46.281171,252,0.2
2025-09-21 23:53:46.291702,192,0.15
2025-09-21 23:53:46.302104,502,0.4
2025-09-21 23:53:46.313491,1497,1.21
2025-09-21 23:53:46.324907,1802,1.45
2025-09-21 23:53:46.336480,3166,2.55
2025-09-21 23:53:46.347839,4095,3.3
2025-09-21 23:53:46.357164,81,0.07
2025-09-21 23:53:46.368621,1204,0.97
2025-09-21 23:53:46.378272,58,0.05
2025-09-21 23:53:46.389578,2528,2.04
2025-09-21 23:53:46.399875,120,0.1
2025-09-21 23:53:46.411397,2247,1.81
2025-09-21 23:53:46.421851,205,0.17
2025-09-21 23:53:46.432279,446,0.36
2025-09-21 23:53:46.443612,3417,2.75
2025-09-21 23:53:46.455162,1383,1.11
2025-09-21 23:53:46.465482,830,0.67
2025-09-21 23:53:46.475931,729,0.59
2025-09-21 23:53:46.486285,365,0.29
2025-09-21 23:53:46.497794,1072,0.86
2025-09-21 23:53:46.508270,471,0.38
2025-09-21 23:53:46.519729,1023,0.82
2025-09-21 23:53:46.530219,460,0.37
2025-09-21 23:53:46.541580,4095,3.3
2025-09-21 23:53:46.551867,287,0.23
2025-09-21 23:53:46.563389,1856,1.5
2025-09-21 23:53:46.573769,447,0.36
2025-09-21 23:53:46.585359,4095,3.3
2025-09-21 23:53:46.595770,841,0.68
2025-09-21 23:53:46.606108,736,0.59
2025-09-21 23:53:46.616442,275,0.22
2025-09-21 23:53:46.625880,41,0.03
2025-09-21 23:53:46.637311,1242,1.0
2025-09-21 23:53:46.648712,1180,0.95
2025-09-21 23:53:46.659133,452,0.36
2025-09-21 23:53:46.670680,3600,2.9
2025-09-21 23:53:46.681039,401,0.32
2025-09-21 23:53:46.692438,4095,3.3
2025-09-21 23:53:46.703015,490,0.39
2025-09-21 23:53:46.712354,16,0.01
2025-09-21 23:53:46.723841,2851,2.3
2025-09-21 23:53:46.735201,1604,1.29
2025-09-21 23:53:46.746599,2832,2.28
2025-09-21 23:53:46.757056,916,0.74
2025-09-21 23:53:46.767564,789,0.64
2025-09-21 23:53:46.777914,661,0.53
2025-09-21 23:53:46.789303,1883,1.52
2025-09-21 23:53:46.800737,1247,1.0
2025-09-21 23:53:46.811158,206,0.17
2025-09-21 23:53:46.822745,3472,2.8
2025-09-21 23:53:46.833070,469,0.38
2025-09-21 23:53:46.843481,687,0.55
2025-09-21 23:53:46.853979,609,0.49
2025-09-21 23:53:46.864396,592,0.48
2025-09-21 23:53:46.875714,1764,1.42
2025-09-21 23:53:46.887193,2303,1.86
2025-09-21 23:53:46.897561,221,0.18
2025-09-21 23:53:46.908267,304,0.24
2025-09-21 23:53:46.919580,2197,1.77
2025-09-21 23:53:46.931106,1446,1.17
2025-09-21 23:53:46.942334,4095,3.3
2025-09-21 23:53:46.953800,2977,2.4
2025-09-21 23:53:46.964358,252,0.2
2025-09-21 23:53:46.974753,688,0.55
2025-09-21 23:53:46.985101,702,0.57
2025-09-21 23:53:46.996496,1213,0.98
2025-09-21 23:53:47.008070,1215,0.98
2025-09-21 23:53:47.019559,4095,3.3
2025-09-21 23:53:47.029960,142,0.11
2025-09-21 23:53:47.040368,924,0.74
2025-09-21 23:53:47.050679,111,0.09
2025-09-21 23:53:47.062101,4095,3.3
2025-09-21 23:53:47.072634,143,0.12
2025-09-21 23:53:47.082969,287,0.23
2025-09-21 23:53:47.094491,3098,2.5
2025-09-21 23:53:47.104930,148,0.12
2025-09-21 23:53:47.116252,1660,1.34
2025-09-21 23:53:47.127700,1718,1.38
2025-09-21 23:53:47.138229,688,0.55
2025-09-21 23:53:47.149566,4095,3.3
2025-09-21 23:53:47.160039,400,0.32
2025-09-21 23:53:47.170388,797,0.64
2025-09-21 23:53:47.180790,150,0.12
2025-09-21 23:53:47.191225,161,0.13
2025-09-21 23:53:47.201632,119,0.1
2025-09-21 23:53:47.212105,655,0.53
2025-09-21 23:53:47.222582,403,0.32
2025-09-21 23:53:47.232875,130,0.1
2025-09-21 23:53:47.243295,555,0.45
2025-09-21 23:53:47.252778,23,0.02
2025-09-21 23:53:47.262075,34,0.03
2025-09-21 23:53:47.272583,107,0.09
2025-09-21 23:53:47.282904,354,0.29
2025-09-21 23:53:47.292183,70,0.06
2025-09-21 23:53:47.303799,1184,0.95
2025-09-21 23:53:47.314062,441,0.36
2025-09-21 23:53:47.325656,1821,1.47
2025-09-21 23:53:47.335108,31,0.02
2025-09-21 23:53:47.344279,53,0.04
2025-09-21 23:53:47.354684,229,0.18
2025-09-21 23:53:47.365089,296,0.24
2025-09-21 23:53:47.375658,477,0.38
2025-09-21 23:53:47.387153,2087,1.68
2025-09-21 23:53:47.397506,551,0.44
2025-09-21 23:53:47.407877,944,0.76
2025-09-21 23:53:47.418350,118,0.1
2025-09-21 23:53:47.428621,176,0.14
2025-09-21 23:53:47.440090,1367,1.1
2025-09-21 23:53:47.449664,34,0.03
2025-09-21 23:53:47.457802,0,0.0
2025-09-21 23:53:47.468307,298,0.24
2025-09-21 23:53:47.479727,1382,1.11
2025-09-21 23:53:47.489209,26,0.02
2025-09-21 23:53:47.499422,119,0.1
2025-09-21 23:53:47.509868,389,0.31
2025-09-21 23:53:47.520240,435,0.35
2025-09-21 23:53:47.530782,673,0.54
2025-09-21 23:53:47.541095,750,0.6
2025-09-21 23:53:47.551567,468,0.38
2025-09-21 23:53:47.562042,438,0.35
2025-09-21 23:53:47.572286,657,0.53
2025-09-21 23:53:47.582834,339,0.27
2025-09-21 23:53:47.593131,123,0.1
2025-09-21 23:53:47.603573,293,0.24
2025-09-21 23:53:47.611882,0,0.0
2025-09-21 23:53:47.620446,4,0.0
2025-09-21 23:53:47.628614,0,0.0
2025-09-21 23:53:47.636910,0,0.0
2025-09-21 23:53:47.645343,0,0.0
2025-09-21 23:53:47.654703,83,0.07
2025-09-21 23:53:47.664136,14,0.01
2025-09-21 23:53:47.673351,38,0.03
2025-09-21 23:53:47.682827,66,0.05
2025-09-21 23:53:47.692260,45,0.04
2025-09-21 23:53:47.702464,337,0.27
2025-09-21 23:53:47.711823,19,0.02
2025-09-21 23:53:47.722387,112,0.09
2025-09-21 23:53:47.732687,134,0.11
2025-09-21 23:53:47.743088,258,0.21
2025-09-21 23:53:47.753486,117,0.09
2025-09-21 23:53:47.763931,205,0.17
2025-09-21 23:53:47.774341,187,0.15
2025-09-21 23:53:47.783700,80,0.06
2025-09-21 23:53:47.793091,60,0.05
2025-09-21 23:53:47.803535,789,0.64
2025-09-21 23:53:47.813905,331,0.27
2025-09-21 23:53:47.822184,0,0.0
2025-09-21 23:53:47.830538,9,0.01
2025-09-21 23:53:47.839262,0,0.0
2025-09-21 23:53:47.849496,452,0.36
2025-09-21 23:53:47.858715,61,0.05
2025-09-21 23:53:47.869128,101,0.08
2025-09-21 23:53:47.879613,271,0.22
2025-09-21 23:53:47.889945,286,0.23
2025-09-21 23:53:47.900468,181,0.15
2025-09-21 23:53:47.909743,98,0.08
2025-09-21 23:53:47.919132,42,0.03
2025-09-21 23:53:47.928458,83,0.07
2025-09-21 23:53:47.936759,0,0.0
2025-09-21 23:53:47.947189,869,0.7
2025-09-21 23:53:47.957577,189,0.15
2025-09-21 23:53:47.968061,657,0.53
2025-09-21 23:53:47.978406,378,0.3
2025-09-21 23:53:47.988790,538,0.43
2025-09-21 23:53:47.999267,153,0.12
2025-09-21 23:53:48.009643,365,0.29
2025-09-21 23:53:48.020191,369,0.3
2025-09-21 23:53:48.030441,153,0.12
2025-09-21 23:53:48.039844,21,0.02
2025-09-21 23:53:48.048192,0,0.0
2025-09-21 23:53:48.056591,0,0.0
2025-09-21 23:53:48.065872,32,0.03
2025-09-21 23:53:48.075245,36,0.03
2025-09-21 23:53:48.085782,159,0.13
2025-09-21 23:53:48.095071,48,0.04
2025-09-21 23:53:48.105559,176,0.14
2025-09-21 23:53:48.116072,270,0.22
2025-09-21 23:53:48.126313,214,0.17
2025-09-21 23:53:48.136703,335,0.27
2025-09-21 23:53:48.147311,317,0.26
2025-09-21 23:53:48.157622,312,0.25
2025-09-21 23:53:48.167877,236,0.19
2025-09-21 23:53:48.178436,229,0.18
2025-09-21 23:53:48.186675,0,0.0
2025-09-21 23:53:48.195111,0,0.0
2025-09-21 23:53:48.204371,64,0.05
2025-09-21 23:53:48.212668,0,0.0
2025-09-21 23:53:48.223088,208,0.17
2025-09-21 23:53:48.233591,212,0.17
2025-09-21 23:53:48.243999,248,0.2
2025-09-21 23:53:48.254356,199,0.16
2025-09-21 23:53:48.264743,330,0.27
2025-09-21 23:53:48.275149,242,0.2
2025-09-21 23:53:48.285602,164,0.13
2025-09-21 23:53:48.295144,26,0.02
2025-09-21 23:53:48.304437,16,0.01
2025-09-21 23:53:48.312640,0,0.0
2025-09-21 23:53:48.322182,31,0.02
2025-09-21 23:53:48.331512,41,0.03
2025-09-21 23:53:48.341838,187,0.15
2025-09-21 23:53:48.352333,149,0.12
2025-09-21 23:53:48.360598,0,0.0
2025-09-21 23:53:48.368983,0,0.0
2025-09-21 23:53:48.377209,0,0.0
2025-09-21 23:53:48.387584,111,0.09
2025-09-21 23:53:48.397189,43,0.03
2025-09-21 23:53:48.407425,257,0.21
2025-09-21 23:53:48.417913,212,0.17
2025-09-21 23:53:48.428224,251,0.2
2025-09-21 23:53:48.438738,140,0.11
2025-09-21 23:53:48.448139,95,0.08
2025-09-21 23:53:48.457372,50,0.04
2025-09-21 23:53:48.466752,69,0.06
2025-09-21 23:53:48.475059,0,0.0
2025-09-21 23:53:48.484589,55,0.04
2025-09-21 23:53:48.492786,5,0.0
2025-09-21 23:53:48.502150,23,0.02
2025-09-21 23:53:48.510532,0,0.0
2025-09-21 23:53:48.520975,119,0.1
2025-09-21 23:53:48.530386,83,0.07
2025-09-21 23:53:48.540661,234,0.19
2025-09-21 23:53:48.551063,176,0.14
2025-09-21 23:53:48.561503,310,0.25
2025-09-21 23:53:48.572107,342,0.28
2025-09-21 23:53:48.582456,258,0.21
2025-09-21 23:53:48.592739,213,0.17
2025-09-21 23:53:48.604304,1367,1.1
2025-09-21 23:53:48.613540,44,0.04
2025-09-21 23:53:48.622997,48,0.04
2025-09-21 23:53:48.631403,0,0.0
2025-09-21 23:53:48.641809,196,0.16
2025-09-21 23:53:48.651150,91,0.07
2025-09-21 23:53:48.660412,67,0.05
2025-09-21 23:53:48.670832,112,0.09
2025-09-21 23:53:48.681271,141,0.11
2025-09-21 23:53:48.690707,61,0.05
2025-09-21 23:53:48.700184,31,0.02
2025-09-21 23:53:48.708308,0,0.0
2025-09-21 23:53:48.717736,84,0.07
2025-09-21 23:53:48.726260,0,0.0
2025-09-21 23:53:48.734347,0,0.0
2025-09-21 23:53:48.743869,51,0.04
2025-09-21 23:53:48.753128,82,0.07
2025-09-21 23:53:48.763717,237,0.19
2025-09-21 23:53:48.774058,218,0.18
2025-09-21 23:53:48.784314,172,0.14
2025-09-21 23:53:48.794744,263,0.21
2025-09-21 23:53:48.805147,179,0.14
2025-09-21 23:53:48.815562,223,0.18
2025-09-21 23:53:48.826129,195,0.16
2025-09-21 23:53:48.836386,294,0.24
2025-09-21 23:53:48.846789,354,0.29
2025-09-21 23:53:48.857355,165,0.13
2025-09-21 23:53:48.867753,231,0.19
2025-09-21 23:53:48.878070,170,0.14
2025-09-21 23:53:48.888665,390,0.31
2025-09-21 23:53:48.898941,458,0.37
2025-09-21 23:53:48.909331,667,0.54
2025-09-21 23:53:48.919689,673,0.54
2025-09-21 23:53:48.930190,560,0.45
2025-09-21 23:53:48.940635,523,0.42
2025-09-21 23:53:48.951004,303,0.24
2025-09-21 23:53:48.961347,359,0.29
2025-09-21 23:53:48.971867,181,0.15
2025-09-21 23:53:48.982201,101,0.08
2025-09-21 23:53:48.991510,64,0.05
2025-09-21 23:53:49.001008,77,0.06
2025-09-21 23:53:49.011323,176,0.14
2025-09-21 23:53:49.020729,49,0.04
2025-09-21 23:53:49.029083,0,0.0
2025-09-21 23:53:49.038407,59,0.05
2025-09-21 23:53:49.048802,272,0.22
2025-09-21 23:53:49.059234,208,0.17
2025-09-21 23:53:49.069658,361,0.29
2025-09-21 23:53:49.080070,260,0.21
2025-09-21 23:53:49.090485,432,0.35
2025-09-21 23:53:49.100886,288,0.23
2025-09-21 23:53:49.110280,55,0.04
2025-09-21 23:53:49.119659,26,0.02
2025-09-21 23:53:49.127998,3,0.0
2025-09-21 23:53:49.138372,108,0.09
2025-09-21 23:53:49.147748,22,0.02
2025-09-21 23:53:49.158191,145,0.12
2025-09-21 23:53:49.167602,48,0.04
2025-09-21 23:53:49.177985,173,0.14
2025-09-21 23:53:49.188309,146,0.12
2025-09-21 23:53:49.198988,126,0.1
2025-09-21 23:53:49.207214,0,0.0
2025-09-21 23:53:49.215530,0,0.0
2025-09-21 23:53:49.224906,58,0.05
2025-09-21 23:53:49.233236,0,0.0
2025-09-21 23:53:49.241409,0,0.0
2025-09-21 23:53:49.251988,210,0.17
2025-09-21 23:53:49.261228,86,0.07
2025-09-21 23:53:49.271756,144,0.12
2025-09-21 23:53:49.282097,290,0.23
2025-09-21 23:53:49.292751,175,0.14
2025-09-21 23:53:49.302860,222,0.18
2025-09-21 23:53:49.313413,262,0.21
2025-09-21 23:53:49.323688,188,0.15
2025-09-21 23:53:49.334091,310,0.25
2025-09-21 23:53:49.344667,176,0.14
2025-09-21 23:53:49.354013,77,0.06
2025-09-21 23:53:49.364296,352,0.28
2025-09-21 23:53:49.373828,49,0.04
2025-09-21 23:53:49.382067,0,0.0
2025-09-21 23:53:49.390312,0,0.0
2025-09-21 23:53:49.400739,226,0.18
2025-09-21 23:53:49.410145,39,0.03
2025-09-21 23:53:49.418480,0,0.0
2025-09-21 23:53:49.428865,109,0.09
2025-09-21 23:53:49.437328,0,0.0
2025-09-21 23:53:49.445515,0,0.0
2025-09-21 23:53:49.453977,0,0.0
2025-09-21 23:53:49.464275,159,0.13
2025-09-21 23:53:49.473819,73,0.06
2025-09-21 23:53:49.484062,174,0.14
2025-09-21 23:53:49.494477,302,0.24
2025-09-21 23:53:49.504876,186,0.15
2025-09-21 23:53:49.515432,112,0.09
2025-09-21 23:53:49.525807,335,0.27
2025-09-21 23:53:49.534205,0,0.0
2025-09-21 23:53:49.544431,393,0.32
2025-09-21 23:53:49.554999,214,0.17
2025-09-21 23:53:49.564248,48,0.04
2025-09-21 23:53:49.574756,288,0.23
2025-09-21 23:53:49.585064,656,0.53
2025-09-21 23:53:49.596636,1936,1.56
2025-09-21 23:53:49.607107,790,0.64
2025-09-21 23:53:49.618490,2267,1.83
2025-09-21 23:53:49.628774,483,0.39
2025-09-21 23:53:49.640356,1061,0.86
2025-09-21 23:53:49.650685,767,0.62
2025-09-21 23:53:49.662185,3493,2.81
2025-09-21 23:53:49.673682,1117,0.9
2025-09-21 23:53:49.685267,1002,0.81
2025-09-21 23:53:49.695412,294,0.24
2025-09-21 23:53:49.706059,323,0.26
2025-09-21 23:53:49.717407,1839,1.48
2025-09-21 23:53:49.728888,1149,0.93
2025-09-21 23:53:49.739225,693,0.56
2025-09-21 23:53:49.749551,494,0.4
2025-09-21 23:53:49.760042,981,0.79
2025-09-21 23:53:49.770504,795,0.64
2025-09-21 23:53:49.780788,944,0.76
2025-09-21 23:53:49.792236,2535,2.04
2025-09-21 23:53:49.803688,2551,2.06
2025-09-21 23:53:49.815159,1978,1.59
2025-09-21 23:53:49.825585,111,0.09
2025-09-21 23:53:49.833985,0,0.0
2025-09-21 23:53:49.844466,383,0.31
2025-09-21 23:53:49.854859,289,0.23
2025-09-21 23:53:49.865284,439,0.35
2025-09-21 23:53:49.875678,336,0.27
2025-09-21 23:53:49.887106,3053,2.46
2025-09-21 23:53:49.898503,2692,2.17
2025-09-21 23:53:49.907899,43,0.03
2025-09-21 23:53:49.918381,610,0.49
2025-09-21 23:53:49.929832,4064,3.28
2025-09-21 23:53:49.941182,2361,1.9
2025-09-21 23:53:49.952652,1456,1.17
2025-09-21 23:53:49.964062,2080,1.68
2025-09-21 23:53:49.974586,862,0.69
2025-09-21 23:53:49.985963,1970,1.59
2025-09-21 23:53:49.997382,2481,2.0
2025-09-21 23:53:50.008874,1955,1.58
2025-09-21 23:53:50.020342,1104,0.89
2025-09-21 23:53:50.031803,4095,3.3
2025-09-21 23:53:50.043215,4095,3.3
2025-09-21 23:53:50.053620,553,0.45
2025-09-21 23:53:50.065067,2943,2.37
2025-09-21 23:53:50.075465,863,0.7
2025-09-21 23:53:50.085979,314,0.25
2025-09-21 23:53:50.097382,1125,0.91
2025-09-21 23:53:50.108826,4095,3.3
2025-09-21 23:53:50.118303,76,0.06
2025-09-21 23:53:50.129669,4095,3.3
2025-09-21 23:53:50.141200,4095,3.3
2025-09-21 23:53:50.151463,647,0.52
2025-09-21 23:53:50.162988,1901,1.53
2025-09-21 23:53:50.174411,1935,1.56
2025-09-21 23:53:50.183767,16,0.01
2025-09-21 23:53:50.195244,1572,1.27
2025-09-21 23:53:50.205619,313,0.25
2025-09-21 23:53:50.216078,238,0.19
2025-09-21 23:53:50.224478,0,0.0
2025-09-21 23:53:50.234935,391,0.32
2025-09-21 23:53:50.246360,1803,1.45
2025-09-21 23:53:50.257832,4095,3.3
2025-09-21 23:53:50.266071,0,0.0
2025-09-21 23:53:50.276461,901,0.73
2025-09-21 23:53:50.286978,129,0.1
2025-09-21 23:53:50.298428,1073,0.86
2025-09-21 23:53:50.309772,3376,2.72
2025-09-21 23:53:50.320133,842,0.68
2025-09-21 23:53:50.330565,838,0.68
2025-09-21 23:53:50.341039,833,0.67
2025-09-21 23:53:50.351541,834,0.67
2025-09-21 23:53:50.362864,4095,3.3
2025-09-21 23:53:50.374512,4095,3.3
2025-09-21 23:53:50.385888,4095,3.3
2025-09-21 23:53:50.397225,1431,1.15
2025-09-21 23:53:50.407611,841,0.68
2025-09-21 23:53:50.418068,847,0.68
2025-09-21 23:53:50.428598,845,0.68
2025-09-21 23:53:50.439007,837,0.67
2025-09-21 23:53:50.449283,841,0.68
2025-09-21 23:53:50.459727,841,0.68
2025-09-21 23:53:50.470228,837,0.67
2025-09-21 23:53:50.480517,839,0.68
2025-09-21 23:53:50.490987,841,0.68
2025-09-21 23:53:50.501477,838,0.68
2025-09-21 23:53:50.511791,845,0.68
2025-09-21 23:53:50.522177,839,0.68
2025-09-21 23:53:50.532586,842,0.68
2025-09-21 23:53:50.543046,844,0.68
2025-09-21 23:53:50.553385,836,0.67
2025-09-21 23:53:50.563898,833,0.67
2025-09-21 23:53:50.574365,845,0.68
2025-09-21 23:53:50.584636,831,0.67
2025-09-21 23:53:50.595209,843,0.68
2025-09-21 23:53:50.605586,837,0.67
2025-09-21 23:53:50.615881,834,0.67
2025-09-21 23:53:50.626315,912,0.73
2025-09-21 23:53:50.636784,848,0.68
2025-09-21 23:53:50.648203,4095,3.3
2025-09-21 23:53:50.659655,4095,3.3
2025-09-21 23:53:50.671062,4095,3.3
2025-09-21 23:53:50.682552,1333,1.07
2025-09-21 23:53:50.694023,2009,1.62
2025-09-21 23:53:50.705558,1971,1.59
2025-09-21 23:53:50.713810,0,0.0
2025-09-21 23:53:50.722069,0,0.0
2025-09-21 23:53:50.733542,2521,2.03
2025-09-21 23:53:50.742987,45,0.04
2025-09-21 23:53:50.754358,1904,1.53
2025-09-21 23:53:50.765850,1064,0.86
2025-09-21 23:53:50.776267,432,0.35
2025-09-21 23:53:50.786634,378,0.3
2025-09-21 23:53:50.797214,523,0.42
2025-09-21 23:53:50.807509,560,0.45
2025-09-21 23:53:50.817888,560,0.45
2025-09-21 23:53:50.829497,2039,1.64
2025-09-21 23:53:50.840790,2496,2.01
2025-09-21 23:53:50.851189,361,0.29
2025-09-21 23:53:50.862687,1193,0.96
2025-09-21 23:53:50.873097,179,0.14
2025-09-21 23:53:50.881406,6,0.0
2025-09-21 23:53:50.889711,0,0.0
2025-09-21 23:53:50.900210,370,0.3
2025-09-21 23:53:50.911742,1649,1.33
2025-09-21 23:53:50.922212,370,0.3
2025-09-21 23:53:50.933496,1159,0.93
2025-09-21 23:53:50.943917,173,0.14
2025-09-21 23:53:50.954326,112,0.09
2025-09-21 23:53:50.964785,484,0.39
2025-09-21 23:53:50.976154,1743,1.4
2025-09-21 23:53:50.986664,631,0.51
2025-09-21 23:53:50.998120,1613,1.3
2025-09-21 23:53:51.008586,432,0.35
2025-09-21 23:53:51.018837,895,0.72
2025-09-21 23:53:51.029405,703,0.57
2025-09-21 23:53:51.039667,415,0.33
2025-09-21 23:53:51.050078,219,0.18
2025-09-21 23:53:51.060504,432,0.35
2025-09-21 23:53:51.070886,656,0.53
2025-09-21 23:53:51.080287,13,0.01
2025-09-21 23:53:51.091750,1216,0.98
2025-09-21 23:53:51.102286,154,0.12
2025-09-21 23:53:51.112591,730,0.59
2025-09-21 23:53:51.123180,897,0.72
2025-09-21 23:53:51.133362,336,0.27
2025-09-21 23:53:51.141834,0,0.0
2025-09-21 23:53:51.152111,418,0.34
2025-09-21 23:53:51.163713,1083,0.87
2025-09-21 23:53:51.174059,673,0.54
2025-09-21 23:53:51.184470,492,0.4
2025-09-21 23:53:51.194856,343,0.28
2025-09-21 23:53:51.205274,211,0.17
2025-09-21 23:53:51.215791,381,0.31
2025-09-21 23:53:51.226087,145,0.12
2025-09-21 23:53:51.237639,1104,0.89
2025-09-21 23:53:51.249031,3843,3.1
2025-09-21 23:53:51.259390,979,0.79
2025-09-21 23:53:51.270817,1466,1.18
2025-09-21 23:53:51.281250,101,0.08
2025-09-21 23:53:51.290584,18,0.01
2025-09-21 23:53:51.300196,48,0.04
2025-09-21 23:53:51.310423,197,0.16
2025-09-21 23:53:51.318767,0,0.0
2025-09-21 23:53:51.328131,80,0.06
2025-09-21 23:53:51.338516,997,0.8
2025-09-21 23:53:51.347913,26,0.02
2025-09-21 23:53:51.356302,0,0.0
2025-09-21 23:53:51.366635,176,0.14
2025-09-21 23:53:51.377175,221,0.18
2025-09-21 23:53:51.387580,125,0.1
2025-09-21 23:53:51.395915,0,0.0
2025-09-21 23:53:51.406189,354,0.29
2025-09-21 23:53:51.416731,753,0.61
2025-09-21 23:53:51.427084,415,0.33
2025-09-21 23:53:51.438461,4095,3.3
2025-09-21 23:53:51.448880,845,0.68
2025-09-21 23:53:51.459318,842,0.68
2025-09-21 23:53:51.469833,837,0.67
2025-09-21 23:53:51.480202,843,0.68
2025-09-21 23:53:51.490510,841,0.68
2025-09-21 23:53:51.501021,837,0.67
2025-09-21 23:53:51.511344,842,0.68
2025-09-21 23:53:51.521768,842,0.68
2025-09-21 23:53:51.532282,838,0.68
2025-09-21 23:53:51.542611,847,0.68
2025-09-21 23:53:51.553063,841,0.68
2025-09-21 23:53:51.563429,834,0.67
2025-09-21 23:53:51.573844,837,0.67
2025-09-21 23:53:51.584301,843,0.68
2025-09-21 23:53:51.594655,847,0.68
2025-09-21 23:53:51.605131,842,0.68
2025-09-21 23:53:51.615605,839,0.68
2025-09-21 23:53:51.625908,837,0.67
2025-09-21 23:53:51.636346,837,0.67
2025-09-21 23:53:51.646733,837,0.67
2025-09-21 23:53:51.657191,838,0.68
2025-09-21 23:53:51.667691,841,0.68
2025-09-21 23:53:51.678166,842,0.68
2025-09-21 23:53:51.688362,832,0.67
2025-09-21 23:53:51.698827,847,0.68
2025-09-21 23:53:51.709222,834,0.67
2025-09-21 23:53:51.719625,838,0.68
2025-09-21 23:53:51.730212,843,0.68
2025-09-21 23:53:51.740451,838,0.68
2025-09-21 23:53:51.750985,835,0.67
2025-09-21 23:53:51.761264,839,0.68
2025-09-21 23:53:51.771660,846,0.68
2025-09-21 23:53:51.782233,838,0.68
2025-09-21 23:53:51.792520,841,0.68
2025-09-21 23:53:51.802924,838,0.68
2025-09-21 23:53:51.814411,4095,3.3
2025-09-21 23:53:51.825825,4095,3.3
2025-09-21 23:53:51.837291,4095,3.3
2025-09-21 23:53:51.848756,2022,1.63
2025-09-21 23:53:51.859167,944,0.76
2025-09-21 23:53:51.868521,67,0.05
2025-09-21 23:53:51.880158,1131,0.91
2025-09-21 23:53:51.888362,0,0.0
2025-09-21 23:53:51.898773,921,0.74
2025-09-21 23:53:51.909144,587,0.47
2025-09-21 23:53:51.919655,845,0.68
2025-09-21 23:53:51.931055,4095,3.3
2025-09-21 23:53:51.942456,4095,3.3
2025-09-21 23:53:51.954015,4095,3.3
2025-09-21 23:53:51.965488,1485,1.2
2025-09-21 23:53:51.976849,1040,0.84
2025-09-21 23:53:51.987284,979,0.79
2025-09-21 23:53:51.997616,576,0.46
2025-09-21 23:53:52.008111,385,0.31
2025-09-21 23:53:52.019461,1053,0.85
2025-09-21 23:53:52.031152,1068,0.86
2025-09-21 23:53:52.041414,130,0.1
2025-09-21 23:53:52.051817,612,0.49
2025-09-21 23:53:52.062202,150,0.12
2025-09-21 23:53:52.073650,1095,0.88
2025-09-21 23:53:52.084077,144,0.12
2025-09-21 23:53:52.094454,477,0.38
2025-09-21 23:53:52.103833,85,0.07
2025-09-21 23:53:52.114267,319,0.26
2025-09-21 23:53:52.124681,112,0.09
2025-09-21 23:53:52.135077,645,0.52
2025-09-21 23:53:52.143490,0,0.0
2025-09-21 23:53:52.153787,432,0.35
2025-09-21 23:53:52.162258,0,0.0
2025-09-21 23:53:52.172564,112,0.09
2025-09-21 23:53:52.183057,576,0.46
2025-09-21 23:53:52.193386,176,0.14
2025-09-21 23:53:52.204811,4095,3.3
2025-09-21 23:53:52.215236,246,0.2
2025-09-21 23:53:52.225862,357,0.29
2025-09-21 23:53:52.236060,212,0.17
2025-09-21 23:53:52.245461,31,0.02
2025-09-21 23:53:52.255840,207,0.17
2025-09-21 23:53:52.264335,0,0.0
2025-09-21 23:53:52.275846,1975,1.59
2025-09-21 23:53:52.285077,75,0.06
2025-09-21 23:53:52.294520,96,0.08
2025-09-21 23:53:52.304798,112,0.09
2025-09-21 23:53:52.315188,112,0.09
2025-09-21 23:53:52.324733,80,0.06
2025-09-21 23:53:52.334135,96,0.08
2025-09-21 23:53:52.343329,42,0.03
2025-09-21 23:53:52.353713,144,0.12
2025-09-21 23:53:52.362063,0,0.0
2025-09-21 23:53:52.370361,0,0.0
2025-09-21 23:53:52.380843,195,0.16
2025-09-21 23:53:52.390276,27,0.02
2025-09-21 23:53:52.399653,80,0.06
2025-09-21 23:53:52.410059,322,0.26
2025-09-21 23:53:52.420358,138,0.11
2025-09-21 23:53:52.431829,4095,3.3
2025-09-21 23:53:52.442442,851,0.69
2025-09-21 23:53:52.452778,833,0.67
2025-09-21 23:53:52.464142,4095,3.3
2025-09-21 23:53:52.475536,4095,3.3
2025-09-21 23:53:52.487081,3733,3.01
2025-09-21 23:53:52.498654,1249,1.01
2025-09-21 23:53:52.508934,880,0.71
2025-09-21 23:53:52.520323,1204,0.97
2025-09-21 23:53:52.529724,87,0.07
2025-09-21 23:53:52.538070,0,0.0
2025-09-21 23:53:52.548557,106,0.09
2025-09-21 23:53:52.559913,1011,0.81
2025-09-21 23:53:52.570286,199,0.16
2025-09-21 23:53:52.580713,495,0.4
2025-09-21 23:53:52.591126,145,0.12
2025-09-21 23:53:52.601688,594,0.48
2025-09-21 23:53:52.612169,245,0.2
2025-09-21 23:53:52.622480,535,0.43
2025-09-21 23:53:52.631874,55,0.04
2025-09-21 23:53:52.643202,4095,3.3
2025-09-21 23:53:52.653731,835,0.67
2025-09-21 23:53:52.665070,4095,3.3
2025-09-21 23:53:52.676531,4095,3.3
2025-09-21 23:53:52.688109,4095,3.3
2025-09-21 23:53:52.699548,1627,1.31
2025-09-21 23:53:52.710872,1318,1.06
2025-09-21 23:53:52.721424,528,0.43
2025-09-21 23:53:52.731826,913,0.74
2025-09-21 23:53:52.741187,16,0.01
2025-09-21 23:53:52.751489,555,0.45
2025-09-21 23:53:52.762035,252,0.2
2025-09-21 23:53:52.772469,636,0.51
2025-09-21 23:53:52.782737,209,0.17
2025-09-21 23:53:52.793210,464,0.37
2025-09-21 23:53:52.803678,129,0.1
2025-09-21 23:53:52.814013,174,0.14
2025-09-21 23:53:52.824452,745,0.6
2025-09-21 23:53:52.833842,66,0.05
2025-09-21 23:53:52.844246,593,0.48
2025-09-21 23:53:52.852463,0,0.0
2025-09-21 23:53:52.863069,435,0.35
2025-09-21 23:53:52.873492,511,0.41
2025-09-21 23:53:52.883754,203,0.16
2025-09-21 23:53:52.894124,580,0.47
2025-09-21 23:53:52.904580,708,0.57
2025-09-21 23:53:52.915027,144,0.12
2025-09-21 23:53:52.925379,486,0.39
2025-09-21 23:53:52.935790,111,0.09
2025-09-21 23:53:52.946327,380,0.31
2025-09-21 23:53:52.954549,0,0.0
2025-09-21 23:53:52.965464,838,0.68
2025-09-21 23:53:52.976451,4095,3.3
2025-09-21 23:53:52.987836,4095,3.3
2025-09-21 23:53:52.999335,4095,3.3
2025-09-21 23:53:53.010759,2919,2.35
2025-09-21 23:53:53.022231,2240,1.81
2025-09-21 23:53:53.030688,0,0.0
2025-09-21 23:53:53.041037,173,0.14
2025-09-21 23:53:53.051367,176,0.14
2025-09-21 23:53:53.061835,954,0.77
2025-09-21 23:53:53.070236,3,0.0
2025-09-21 23:53:53.080514,384,0.31
2025-09-21 23:53:53.091133,555,0.45
2025-09-21 23:53:53.100313,48,0.04
2025-09-21 23:53:53.110723,161,0.13
2025-09-21 23:53:53.121170,401,0.32
2025-09-21 23:53:53.129610,0,0.0
2025-09-21 23:53:53.139899,107,0.09
2025-09-21 23:53:53.150314,422,0.34
2025-09-21 23:53:53.159664,75,0.06
2025-09-21 23:53:53.170115,386,0.31
2025-09-21 23:53:53.180490,283,0.23
2025-09-21 23:53:53.190886,139,0.11
2025-09-21 23:53:53.201426,162,0.13
2025-09-21 23:53:53.210678,43,0.03
2025-09-21 23:53:53.221231,205,0.17
2025-09-21 23:53:53.231502,951,0.77
2025-09-21 23:53:53.240867,32,0.03
2025-09-21 23:53:53.251294,832,0.67
2025-09-21 23:53:53.262980,4095,3.3
2025-09-21 23:53:53.274192,4095,3.3
2025-09-21 23:53:53.285781,4095,3.3
2025-09-21 23:53:53.297155,1472,1.19
2025-09-21 23:53:53.307516,354,0.29
2025-09-21 23:53:53.318000,357,0.29
2025-09-21 23:53:53.328487,372,0.3
2025-09-21 23:53:53.339821,1146,0.92
2025-09-21 23:53:53.350333,335,0.27
2025-09-21 23:53:53.360644,335,0.27
2025-09-21 23:53:53.371061,134,0.11
2025-09-21 23:53:53.380396,97,0.08
2025-09-21 23:53:53.390922,434,0.35
2025-09-21 23:53:53.401360,799,0.64
2025-09-21 23:53:53.411648,638,0.51
2025-09-21 23:53:53.422200,172,0.14
2025-09-21 23:53:53.433510,4095,3.3
2025-09-21 23:53:53.444005,293,0.24
2025-09-21 23:53:53.454311,309,0.25
2025-09-21 23:53:53.464713,317,0.26
2025-09-21 23:53:53.475284,560,0.45
2025-09-21 23:53:53.485537,224,0.18
2025-09-21 23:53:53.496069,568,0.46
2025-09-21 23:53:53.507557,1349,1.09
2025-09-21 23:53:53.517846,146,0.12
2025-09-21 23:53:53.527289,16,0.01
2025-09-21 23:53:53.537697,147,0.12
2025-09-21 23:53:53.549242,1706,1.37
2025-09-21 23:53:53.557384,0,0.0
2025-09-21 23:53:53.567825,320,0.26
2025-09-21 23:53:53.579313,2245,1.81
2025-09-21 23:53:53.588778,38,0.03
2025-09-21 23:53:53.599096,729,0.59
2025-09-21 23:53:53.609494,939,0.76
2025-09-21 23:53:53.619865,253,0.2
2025-09-21 23:53:53.630289,114,0.09
2025-09-21 23:53:53.640834,176,0.14
2025-09-21 23:53:53.651114,238,0.19
2025-09-21 23:53:53.661685,163,0.13
2025-09-21 23:53:53.673200,2427,1.96
2025-09-21 23:53:53.682511,59,0.05
2025-09-21 23:53:53.692785,227,0.18
2025-09-21 23:53:53.704215,4095,3.3
2025-09-21 23:53:53.714686,834,0.67
2025-09-21 23:53:53.725120,850,0.68
2025-09-21 23:53:53.736491,4095,3.3
2025-09-21 23:53:53.748022,4095,3.3
2025-09-21 23:53:53.759455,3056,2.46
2025-09-21 23:53:53.770862,4095,3.3
2025-09-21 23:53:53.781412,844,0.68
2025-09-21 23:53:53.791662,838,0.68
2025-09-21 23:53:53.803157,2975,2.4
2025-09-21 23:53:53.814677,4095,3.3
2025-09-21 23:53:53.825078,457,0.37
2025-09-21 23:53:53.836466,2601,2.1
2025-09-21 23:53:53.846905,845,0.68
2025-09-21 23:53:53.857322,845,0.68
2025-09-21 23:53:53.867746,834,0.67
2025-09-21 23:53:53.879227,4095,3.3
2025-09-21 23:53:53.890641,4095,3.3
2025-09-21 23:53:53.902075,4095,3.3
2025-09-21 23:53:53.913574,4095,3.3
2025-09-21 23:53:53.924003,784,0.63
2025-09-21 23:53:53.934365,839,0.68
2025-09-21 23:53:53.945846,4095,3.3
2025-09-21 23:53:53.957243,4095,3.3
2025-09-21 23:53:53.968740,4095,3.3
2025-09-21 23:53:53.980276,4095,3.3
2025-09-21 23:53:53.990836,839,0.68
2025-09-21 23:53:54.001056,847,0.68
2025-09-21 23:53:54.011482,848,0.68
2025-09-21 23:53:54.021826,837,0.67
2025-09-21 23:53:54.032213,837,0.67
2025-09-21 23:53:54.042701,842,0.68
2025-09-21 23:53:54.053060,845,0.68
2025-09-21 23:53:54.063444,843,0.68
2025-09-21 23:53:54.073881,848,0.68
2025-09-21 23:53:54.084403,848,0.68
2025-09-21 23:53:54.094709,839,0.68
2025-09-21 23:53:54.105213,848,0.68
2025-09-21 23:53:54.115527,846,0.68
2025-09-21 23:53:54.126010,843,0.68
2025-09-21 23:53:54.136483,835,0.67
2025-09-21 23:53:54.146769,845,0.68
2025-09-21 23:53:54.157163,849,0.68
2025-09-21 23:53:54.167582,843,0.68
2025-09-21 23:53:54.178060,847,0.68
2025-09-21 23:53:54.188449,848,0.68
2025-09-21 23:53:54.198839,836,0.67
2025-09-21 23:53:54.209233,831,0.67
2025-09-21 23:53:54.219668,834,0.67
2025-09-21 23:53:54.230081,846,0.68
2025-09-21 23:53:54.240700,839,0.68
2025-09-21 23:53:54.250994,843,0.68
2025-09-21 23:53:54.261292,837,0.67
2025-09-21 23:53:54.271902,847,0.68
2025-09-21 23:53:54.282124,834,0.67
2025-09-21 23:53:54.292550,845,0.68
2025-09-21 23:53:54.302987,848,0.68
2025-09-21 23:53:54.313633,849,0.68
2025-09-21 23:53:54.324030,837,0.67
2025-09-21 23:53:54.334184,845,0.68
2025-09-21 23:53:54.344743,847,0.68
2025-09-21 23:53:54.355124,841,0.68
2025-09-21 23:53:54.365455,843,0.68
2025-09-21 23:53:54.375841,842,0.68
2025-09-21 23:53:54.386235,843,0.68
2025-09-21 23:53:54.396726,838,0.68
2025-09-21 23:53:54.407206,848,0.68
2025-09-21 23:53:54.417463,843,0.68
2025-09-21 23:53:54.427952,848,0.68
2025-09-21 23:53:54.438345,848,0.68
2025-09-21 23:53:54.448728,846,0.68
2025-09-21 23:53:54.459159,848,0.68
2025-09-21 23:53:54.469679,845,0.68
2025-09-21 23:53:54.480022,837,0.67
2025-09-21 23:53:54.490501,843,0.68
2025-09-21 23:53:54.500857,846,0.68
2025-09-21 23:53:54.511342,847,0.68
2025-09-21 23:53:54.521617,838,0.68
2025-09-21 23:53:54.532235,842,0.68
2025-09-21 23:53:54.542469,843,0.68
2025-09-21 23:53:54.552835,845,0.68
2025-09-21 23:53:54.563253,841,0.68
2025-09-21 23:53:54.573660,839,0.68
2025-09-21 23:53:54.584148,848,0.68
2025-09-21 23:53:54.594505,835,0.67
2025-09-21 23:53:54.605020,847,0.68
2025-09-21 23:53:54.615531,845,0.68
2025-09-21 23:53:54.625729,838,0.68
2025-09-21 23:53:54.636139,847,0.68
2025-09-21 23:53:54.646591,850,0.68
2025-09-21 23:53:54.657061,841,0.68
2025-09-21 23:53:54.667486,841,0.68
2025-09-21 23:53:54.677830,846,0.68
2025-09-21 23:53:54.688346,847,0.68
2025-09-21 23:53:54.698704,843,0.68
2025-09-21 23:53:54.709076,834,0.67
2025-09-21 23:53:54.719438,848,0.68
2025-09-21 23:53:54.729838,839,0.68
2025-09-21 23:53:54.740407,845,0.68
2025-09-21 23:53:54.750737,845,0.68
2025-09-21 23:53:54.761088,848,0.68
2025-09-21 23:53:54.771585,842,0.68
2025-09-21 23:53:54.781971,845,0.68
2025-09-21 23:53:54.792331,843,0.68
2025-09-21 23:53:54.802886,838,0.68
2025-09-21 23:53:54.813292,848,0.68
2025-09-21 23:53:54.823684,845,0.68
2025-09-21 23:53:54.834037,845,0.68
2025-09-21 23:53:54.844530,848,0.68
2025-09-21 23:53:54.854815,843,0.68
2025-09-21 23:53:54.865215,842,0.68
2025-09-21 23:53:54.875690,852,0.69
2025-09-21 23:53:54.886082,845,0.68
2025-09-21 23:53:54.896524,838,0.68
2025-09-21 23:53:54.907010,844,0.68
2025-09-21 23:53:54.917305,847,0.68
2025-09-21 23:53:54.927835,843,0.68
2025-09-21 23:53:54.938104,837,0.67
2025-09-21 23:53:54.948523,848,0.68
2025-09-21 23:53:54.958990,846,0.68
2025-09-21 23:53:54.969337,843,0.68
2025-09-21 23:53:54.979738,848,0.68
2025-09-21 23:53:54.990246,845,0.68
2025-09-21 23:53:55.000568,846,0.68
2025-09-21 23:53:55.011217,892,0.72
2025-09-21 23:53:55.022579,4095,3.3
2025-09-21 23:53:55.034038,2096,1.69
2025-09-21 23:53:55.045338,1751,1.41
2025-09-21 23:53:55.055766,511,0.41
2025-09-21 23:53:55.065142,71,0.06
2025-09-21 23:53:55.075587,192,0.15
2025-09-21 23:53:55.085040,35,0.03
2025-09-21 23:53:55.095339,543,0.44
2025-09-21 23:53:55.104689,33,0.03
2025-09-21 23:53:55.115123,622,0.5
2025-09-21 23:53:55.126659,2116,1.71
2025-09-21 23:53:55.137143,131,0.11
2025-09-21 23:53:55.147391,326,0.26
2025-09-21 23:53:55.157821,299,0.24
2025-09-21 23:53:55.167169,66,0.05
2025-09-21 23:53:55.176567,81,0.07
2025-09-21 23:53:55.184968,0,0.0
2025-09-21 23:53:55.194280,97,0.08
2025-09-21 23:53:55.202658,0,0.0
2025-09-21 23:53:55.211128,5,0.0
2025-09-21 23:53:55.219274,0,0.0
2025-09-21 23:53:55.227693,0,0.0
2025-09-21 23:53:55.235898,1,0.0
2025-09-21 23:53:55.246314,569,0.46
2025-09-21 23:53:55.256943,166,0.13
2025-09-21 23:53:55.267179,113,0.09
2025-09-21 23:53:55.277589,669,0.54
2025-09-21 23:53:55.288049,255,0.21
2025-09-21 23:53:55.298553,533,0.43
2025-09-21 23:53:55.308838,589,0.47
2025-09-21 23:53:55.319221,479,0.39
2025-09-21 23:53:55.329764,356,0.29
2025-09-21 23:53:55.340082,300,0.24
2025-09-21 23:53:55.350459,335,0.27
2025-09-21 23:53:55.360986,187,0.15
2025-09-21 23:53:55.371401,344,0.28
2025-09-21 23:53:55.381684,100,0.08
2025-09-21 23:53:55.391057,62,0.05
2025-09-21 23:53:55.401464,232,0.19
2025-09-21 23:53:55.411909,528,0.43
2025-09-21 23:53:55.422298,227,0.18
2025-09-21 23:53:55.432839,702,0.57
2025-09-21 23:53:55.443132,317,0.26
2025-09-21 23:53:55.453616,290,0.23
2025-09-21 23:53:55.463988,279,0.22
2025-09-21 23:53:55.474451,322,0.26
2025-09-21 23:53:55.484737,234,0.19
2025-09-21 23:53:55.495223,205,0.17
2025-09-21 23:53:55.506619,4095,3.3
2025-09-21 23:53:55.518208,4095,3.3
2025-09-21 23:53:55.529580,4095,3.3
2025-09-21 23:53:55.541040,4095,3.3
2025-09-21 23:53:55.552579,1068,0.86
2025-09-21 23:53:55.562879,167,0.13
2025-09-21 23:53:55.572351,72,0.06
2025-09-21 23:53:55.582791,138,0.11
2025-09-21 23:53:55.592165,85,0.07
2025-09-21 23:53:55.602576,205,0.17
2025-09-21 23:53:55.611808,17,0.01
2025-09-21 23:53:55.621201,79,0.06
2025-09-21 23:53:55.629569,0,0.0
2025-09-21 23:53:55.638862,53,0.04
2025-09-21 23:53:55.648326,20,0.02
2025-09-21 23:53:55.658702,266,0.21
2025-09-21 23:53:55.669191,164,0.13
2025-09-21 23:53:55.679462,198,0.16
2025-09-21 23:53:55.688858,98,0.08
2025-09-21 23:53:55.699249,114,0.09
2025-09-21 23:53:55.709702,101,0.08
2025-09-21 23:53:55.720125,131,0.11
2025-09-21 23:53:55.730491,164,0.13
2025-09-21 23:53:55.740995,177,0.14
2025-09-21 23:53:55.751452,101,0.08
2025-09-21 23:53:55.762047,335,0.27
2025-09-21 23:53:55.772136,178,0.14
2025-09-21 23:53:55.782666,112,0.09
2025-09-21 23:53:55.793042,327,0.26
2025-09-21 23:53:55.803426,466,0.38
2025-09-21 23:53:55.813823,405,0.33
2025-09-21 23:53:55.824188,579,0.47
2025-09-21 23:53:55.834755,530,0.43
2025-09-21 23:53:55.845100,498,0.4
2025-09-21 23:53:55.855445,496,0.4
2025-09-21 23:53:55.865970,320,0.26
2025-09-21 23:53:55.876285,240,0.19
2025-09-21 23:53:55.886807,283,0.23
2025-09-21 23:53:55.897094,111,0.09
2025-09-21 23:53:55.907661,329,0.27
2025-09-21 23:53:55.917970,161,0.13
2025-09-21 23:53:55.928377,102,0.08
2025-09-21 23:53:55.938884,185,0.15
2025-09-21 23:53:55.949314,153,0.12
2025-09-21 23:53:55.959578,232,0.19
2025-09-21 23:53:55.970144,260,0.21
2025-09-21 23:53:55.980400,246,0.2
2025-09-21 23:53:55.990821,278,0.22
2025-09-21 23:53:56.001220,474,0.38
2025-09-21 23:53:56.011647,592,0.48
2025-09-21 23:53:56.022059,492,0.4
2025-09-21 23:53:56.032472,547,0.44
2025-09-21 23:53:56.042945,346,0.28
2025-09-21 23:53:56.052236,93,0.07
2025-09-21 23:53:56.061749,96,0.08
2025-09-21 23:53:56.072099,529,0.43
2025-09-21 23:53:56.081529,61,0.05
2025-09-21 23:53:56.090786,16,0.01
2025-09-21 23:53:56.100111,55,0.04
2025-09-21 23:53:56.109594,52,0.04
2025-09-21 23:53:56.119962,245,0.2
2025-09-21 23:53:56.129398,74,0.06
2025-09-21 23:53:56.137626,0,0.0
2025-09-21 23:53:56.148061,147,0.12
2025-09-21 23:53:56.156507,0,0.0
2025-09-21 23:53:56.165861,93,0.07
2025-09-21 23:53:56.174123,1,0.0
2025-09-21 23:53:56.184695,884,0.71
2025-09-21 23:53:56.194081,90,0.07
2025-09-21 23:53:56.204306,107,0.09
2025-09-21 23:53:56.213758,85,0.07
2025-09-21 23:53:56.224178,234,0.19
2025-09-21 23:53:56.233469,66,0.05
2025-09-21 23:53:56.243871,263,0.21
2025-09-21 23:53:56.254342,271,0.22
2025-09-21 23:53:56.265004,393,0.32
2025-09-21 23:53:56.275080,321,0.26
2025-09-21 23:53:56.285507,176,0.14
2025-09-21 23:53:56.295911,226,0.18
2025-09-21 23:53:56.306312,193,0.16
2025-09-21 23:53:56.316824,157,0.13
2025-09-21 23:53:56.327146,352,0.28
2025-09-21 23:53:56.336695,84,0.07
2025-09-21 23:53:56.346965,252,0.2
2025-09-21 23:53:56.357410,118,0.1
2025-09-21 23:53:56.366696,77,0.06
2025-09-21 23:53:56.377129,152,0.12
2025-09-21 23:53:56.387658,328,0.26
2025-09-21 23:53:56.397988,243,0.2
2025-09-21 23:53:56.408376,245,0.2
2025-09-21 23:53:56.418738,240,0.19
2025-09-21 23:53:56.429351,240,0.19
2025-09-21 23:53:56.439562,554,0.45
2025-09-21 23:53:56.450118,509,0.41
2025-09-21 23:53:56.460443,417,0.34
2025-09-21 23:53:56.470959,731,0.59
2025-09-21 23:53:56.481383,272,0.22
2025-09-21 23:53:56.491700,119,0.1
2025-09-21 23:53:56.502093,172,0.14
2025-09-21 23:53:56.510453,9,0.01
2025-09-21 23:53:56.519880,43,0.03
2025-09-21 23:53:56.530291,148,0.12
2025-09-21 23:53:56.540585,144,0.12
2025-09-21 23:53:56.551036,110,0.09
2025-09-21 23:53:56.559346,0,0.0
2025-09-21 23:53:56.569931,157,0.13
2025-09-21 23:53:56.580155,238,0.19
2025-09-21 23:53:56.590699,329,0.27
2025-09-21 23:53:56.601090,460,0.37
2025-09-21 23:53:56.611432,655,0.53
2025-09-21 23:53:56.621798,631,0.51
2025-09-21 23:53:56.632219,375,0.3
2025-09-21 23:53:56.642644,291,0.23
2025-09-21 23:53:56.653186,144,0.12
2025-09-21 23:53:56.662557,64,0.05
2025-09-21 23:53:56.671928,53,0.04
2025-09-21 23:53:56.680218,0,0.0
2025-09-21 23:53:56.690725,164,0.13
2025-09-21 23:53:56.698861,0,0.0
2025-09-21 23:53:56.709308,112,0.09
2025-09-21 23:53:56.717642,0,0.0
2025-09-21 23:53:56.728120,175,0.14
2025-09-21 23:53:56.737390,77,0.06
2025-09-21 23:53:56.747822,246,0.2
2025-09-21 23:53:56.758263,303,0.24
2025-09-21 23:53:56.768637,362,0.29
2025-09-21 23:53:56.779065,624,0.5
2025-09-21 23:53:56.789578,573,0.46
2025-09-21 23:53:56.799904,258,0.21
2025-09-21 23:53:56.810361,246,0.2
2025-09-21 23:53:56.821711,4095,3.3
2025-09-21 23:53:56.832144,845,0.68
2025-09-21 23:53:56.842580,844,0.68
2025-09-21 23:53:56.853048,833,0.67
2025-09-21 23:53:56.863506,855,0.69
2025-09-21 23:53:56.873895,834,0.67
2025-09-21 23:53:56.884382,835,0.67
2025-09-21 23:53:56.894619,806,0.65
2025-09-21 23:53:56.905203,848,0.68
2025-09-21 23:53:56.915527,839,0.68
2025-09-21 23:53:56.925868,847,0.68
2025-09-21 23:53:56.936330,832,0.67
2025-09-21 23:53:56.946667,848,0.68
2025-09-21 23:53:56.957163,841,0.68
2025-09-21 23:53:56.967490,839,0.68
2025-09-21 23:53:56.978113,839,0.68
2025-09-21 23:53:56.989656,4095,3.3
2025-09-21 23:53:57.000832,4095,3.3
2025-09-21 23:53:57.012320,4095,3.3
2025-09-21 23:53:57.022692,832,0.67
2025-09-21 23:53:57.033148,838,0.68
2025-09-21 23:53:57.043496,833,0.67
2025-09-21 23:53:57.054043,841,0.68
2025-09-21 23:53:57.064321,836,0.67
2025-09-21 23:53:57.074814,838,0.68
2025-09-21 23:53:57.085221,839,0.68
2025-09-21 23:53:57.095611,845,0.68
2025-09-21 23:53:57.107072,4095,3.3
2025-09-21 23:53:57.118567,4095,3.3
2025-09-21 23:53:57.130007,2311,1.86
2025-09-21 23:53:57.139328,57,0.05
2025-09-21 23:53:57.147625,0,0.0
2025-09-21 23:53:57.157088,85,0.07
2025-09-21 23:53:57.167446,653,0.53
2025-09-21 23:53:57.177849,317,0.26
2025-09-21 23:53:57.188250,325,0.26
2025-09-21 23:53:57.198701,250,0.2
2025-09-21 23:53:57.209104,736,0.59
2025-09-21 23:53:57.219508,457,0.37
2025-09-21 23:53:57.229906,157,0.13
2025-09-21 23:53:57.240297,183,0.15
2025-09-21 23:53:57.250715,243,0.2
2025-09-21 23:53:57.260069,82,0.07
2025-09-21 23:53:57.269569,89,0.07
2025-09-21 23:53:57.279880,827,0.67
2025-09-21 23:53:57.290276,323,0.26
2025-09-21 23:53:57.300704,375,0.3
2025-09-21 23:53:57.311133,124,0.1
2025-09-21 23:53:57.321526,816,0.66
2025-09-21 23:53:57.333063,1125,0.91
2025-09-21 23:53:57.344413,1909,1.54
2025-09-21 23:53:57.354843,558,0.45
2025-09-21 23:53:57.366349,1563,1.26
2025-09-21 23:53:57.376694,310,0.25
2025-09-21 23:53:57.388283,1840,1.48
2025-09-21 23:53:57.398573,678,0.55
2025-09-21 23:53:57.409067,845,0.68
2025-09-21 23:53:57.420582,1677,1.35
2025-09-21 23:53:57.431890,2061,1.66
2025-09-21 23:53:57.442334,135,0.11
2025-09-21 23:53:57.452853,827,0.67
2025-09-21 23:53:57.464176,1357,1.09
2025-09-21 23:53:57.475629,2383,1.92
2025-09-21 23:53:57.486062,469,0.38
2025-09-21 23:53:57.496499,479,0.39
2025-09-21 23:53:57.508022,1728,1.39
2025-09-21 23:53:57.518314,432,0.35
2025-09-21 23:53:57.529802,2361,1.9
2025-09-21 23:53:57.540226,208,0.17
2025-09-21 23:53:57.550588,482,0.39
2025-09-21 23:53:57.562209,1096,0.88
2025-09-21 23:53:57.572478,440,0.35
2025-09-21 23:53:57.582907,790,0.64
2025-09-21 23:53:57.592264,62,0.05
2025-09-21 23:53:57.603833,1180,0.95
2025-09-21 23:53:57.615176,1620,1.31
2025-09-21 23:53:57.626745,1905,1.54
2025-09-21 23:53:57.637210,605,0.49
2025-09-21 23:53:57.648466,4079,3.29
2025-09-21 23:53:57.656788,0,0.0
2025-09-21 23:53:57.665149,0,0.0
2025-09-21 23:53:57.676618,2409,1.94
2025-09-21 23:53:57.688063,1584,1.28
2025-09-21 23:53:57.698465,240,0.19
2025-09-21 23:53:57.710057,1994,1.61
2025-09-21 23:53:57.720415,393,0.32
2025-09-21 23:53:57.730795,251,0.2
2025-09-21 23:53:57.741257,845,0.68
2025-09-21 23:53:57.751702,448,0.36
2025-09-21 23:53:57.762192,279,0.22
2025-09-21 23:53:57.773412,1280,1.03
2025-09-21 23:53:57.783983,688,0.55
2025-09-21 23:53:57.795331,2150,1.73
2025-09-21 23:53:57.805685,339,0.27
2025-09-21 23:53:57.816326,106,0.09
2025-09-21 23:53:57.827566,1264,1.02
2025-09-21 23:53:57.838056,665,0.54
2025-09-21 23:53:57.848385,112,0.09
2025-09-21 23:53:57.858813,292,0.24
2025-09-21 23:53:57.868192,96,0.08
2025-09-21 23:53:57.879785,1510,1.22
2025-09-21 23:53:57.890210,426,0.34
2025-09-21 23:53:57.900527,560,0.45
2025-09-21 23:53:57.911012,401,0.32
2025-09-21 23:53:57.921341,931,0.75
2025-09-21 23:53:57.931737,309,0.25
2025-09-21 23:53:57.942137,187,0.15
2025-09-21 23:53:57.952658,773,0.62
2025-09-21 23:53:57.963137,943,0.76
2025-09-21 23:53:57.973334,551,0.44
2025-09-21 23:53:57.984833,1697,1.37
2025-09-21 23:53:57.995216,683,0.55
2025-09-21 23:53:58.005662,586,0.47
2025-09-21 23:53:58.016206,618,0.5
2025-09-21 23:53:58.027546,2028,1.63
2025-09-21 23:53:58.035937,0,0.0
2025-09-21 23:53:58.046360,128,0.1
2025-09-21 23:53:58.057824,1344,1.08
2025-09-21 23:53:58.068108,398,0.32
2025-09-21 23:53:58.078639,645,0.52
2025-09-21 23:53:58.089024,202,0.16
2025-09-21 23:53:58.100515,4095,3.3
2025-09-21 23:53:58.110873,843,0.68
2025-09-21 23:53:58.121365,847,0.68
2025-09-21 23:53:58.131620,842,0.68
2025-09-21 23:53:58.142090,846,0.68
2025-09-21 23:53:58.152449,839,0.68
2025-09-21 23:53:58.162851,838,0.68
2025-09-21 23:53:58.173344,842,0.68
2025-09-21 23:53:58.183810,839,0.68
2025-09-21 23:53:58.194129,842,0.68
2025-09-21 23:53:58.204627,837,0.67
2025-09-21 23:53:58.215045,845,0.68
2025-09-21 23:53:58.225327,843,0.68
2025-09-21 23:53:58.235851,834,0.67
2025-09-21 23:53:58.246140,845,0.68
2025-09-21 23:53:58.256718,841,0.68
2025-09-21 23:53:58.267041,840,0.68
2025-09-21 23:53:58.277479,838,0.68
2025-09-21 23:53:58.287865,853,0.69
2025-09-21 23:53:58.298271,844,0.68
2025-09-21 23:53:58.308648,839,0.68
2025-09-21 23:53:58.319078,838,0.68
2025-09-21 23:53:58.329458,835,0.67
2025-09-21 23:53:58.339890,839,0.68
2025-09-21 23:53:58.350271,835,0.67
2025-09-21 23:53:58.360729,833,0.67
2025-09-21 23:53:58.371212,835,0.67
2025-09-21 23:53:58.381512,839,0.68
2025-09-21 23:53:58.391983,845,0.68
2025-09-21 23:53:58.402333,829,0.67
2025-09-21 23:53:58.412800,848,0.68
2025-09-21 23:53:58.423173,846,0.68
2025-09-21 23:53:58.433562,833,0.67
2025-09-21 23:53:58.444109,836,0.67
2025-09-21 23:53:58.454387,839,0.68
2025-09-21 23:53:58.464820,835,0.67
2025-09-21 23:53:58.475264,822,0.66
2025-09-21 23:53:58.485664,837,0.67
2025-09-21 23:53:58.496066,845,0.68
2025-09-21 23:53:58.506469,832,0.67
2025-09-21 23:53:58.516921,837,0.67
2025-09-21 23:53:58.527393,839,0.68
2025-09-21 23:53:58.537687,837,0.67
2025-09-21 23:53:58.548374,837,0.67
2025-09-21 23:53:58.558550,837,0.67
2025-09-21 23:53:58.569130,833,0.67
2025-09-21 23:53:58.579486,843,0.68
2025-09-21 23:53:58.589877,843,0.68
2025-09-21 23:53:58.600304,846,0.68
2025-09-21 23:53:58.610689,846,0.68
2025-09-21 23:53:58.621037,848,0.68
2025-09-21 23:53:58.631425,839,0.68
2025-09-21 23:53:58.641953,846,0.68
2025-09-21 23:53:58.652376,848,0.68
2025-09-21 23:53:58.662639,836,0.67
2025-09-21 23:53:58.673208,845,0.68
2025-09-21 23:53:58.683603,847,0.68
2025-09-21 23:53:58.694051,833,0.67
2025-09-21 23:53:58.704287,841,0.68
2025-09-21 23:53:58.715101,843,0.68
2025-09-21 23:53:58.725186,846,0.68
2025-09-21 23:53:58.735683,905,0.73
2025-09-21 23:53:58.746056,848,0.68
2025-09-21 23:53:58.756359,839,0.68
2025-09-21 23:53:58.767024,843,0.68
2025-09-21 23:53:58.777252,835,0.67
2025-09-21 23:53:58.787729,842,0.68
2025-09-21 23:53:58.798062,847,0.68
2025-09-21 23:53:58.808485,846,0.68
2025-09-21 23:53:58.818983,845,0.68
2025-09-21 23:53:58.829350,837,0.67
2025-09-21 23:53:58.839664,829,0.67
2025-09-21 23:53:58.850098,843,0.68
2025-09-21 23:53:58.860500,839,0.68
2025-09-21 23:53:58.870893,847,0.68
2025-09-21 23:53:58.881368,839,0.68
2025-09-21 23:53:58.891731,849,0.68
2025-09-21 23:53:58.902260,842,0.68
2025-09-21 23:53:58.912541,833,0.67
2025-09-21 23:53:58.923169,847,0.68
2025-09-21 23:53:58.933459,848,0.68
2025-09-21 23:53:58.943798,837,0.67
2025-09-21 23:53:58.954311,846,0.68
2025-09-21 23:53:58.964709,848,0.68
2025-09-21 23:53:58.975211,832,0.67
2025-09-21 23:53:58.985439,841,0.68
2025-09-21 23:53:58.995844,839,0.68
2025-09-21 23:53:59.006277,835,0.67
2025-09-21 23:53:59.016812,837,0.67
2025-09-21 23:53:59.027089,785,0.63
2025-09-21 23:53:59.037583,849,0.68
2025-09-21 23:53:59.048045,832,0.67
2025-09-21 23:53:59.058374,846,0.68
2025-09-21 23:53:59.068785,846,0.68
2025-09-21 23:53:59.079212,838,0.68
2025-09-21 23:53:59.089735,840,0.68
2025-09-21 23:53:59.100037,848,0.68
2025-09-21 23:53:59.110543,842,0.68
2025-09-21 23:53:59.120886,845,0.68
2025-09-21 23:53:59.131220,843,0.68
2025-09-21 23:53:59.141625,843,0.68
2025-09-21 23:53:59.152250,846,0.68
2025-09-21 23:53:59.162479,833,0.67
2025-09-21 23:53:59.172861,849,0.68
2025-09-21 23:53:59.183405,850,0.68
2025-09-21 23:53:59.193741,848,0.68
2025-09-21 23:53:59.204236,844,0.68
2025-09-21 23:53:59.214655,845,0.68
2025-09-21 23:53:59.225070,848,0.68
2025-09-21 23:53:59.235371,846,0.68
2025-09-21 23:53:59.245881,841,0.68
2025-09-21 23:53:59.256190,848,0.68
2025-09-21 23:53:59.266653,847,0.68
2025-09-21 23:53:59.277048,847,0.68
2025-09-21 23:53:59.287405,847,0.68
2025-09-21 23:53:59.297812,839,0.68
2025-09-21 23:53:59.308482,842,0.68
2025-09-21 23:53:59.318659,839,0.68
2025-09-21 23:53:59.329063,848,0.68
2025-09-21 23:53:59.339569,848,0.68
2025-09-21 23:53:59.349887,848,0.68
2025-09-21 23:53:59.360301,847,0.68
2025-09-21 23:53:59.370732,848,0.68
2025-09-21 23:53:59.381258,846,0.68
2025-09-21 23:53:59.391653,843,0.68
2025-09-21 23:53:59.401987,845,0.68
2025-09-21 23:53:59.412408,851,0.69
2025-09-21 23:53:59.422764,848,0.68
2025-09-21 23:53:59.433163,842,0.68
2025-09-21 23:53:59.443598,848,0.68
2025-09-21 23:53:59.454203,840,0.68
2025-09-21 23:53:59.464388,846,0.68
2025-09-21 23:53:59.475113,842,0.68
2025-09-21 23:53:59.485345,846,0.68
2025-09-21 23:53:59.495656,848,0.68
2025-09-21 23:53:59.506077,850,0.68
2025-09-21 23:53:59.516514,858,0.69
2025-09-21 23:53:59.527041,847,0.68
2025-09-21 23:53:59.537290,847,0.68
2025-09-21 23:53:59.547762,845,0.68
2025-09-21 23:53:59.558329,846,0.68
2025-09-21 23:53:59.568513,848,0.68
2025-09-21 23:53:59.579020,834,0.67
2025-09-21 23:53:59.589457,835,0.67
2025-09-21 23:53:59.599916,848,0.68
2025-09-21 23:53:59.610205,848,0.68
2025-09-21 23:53:59.620732,848,0.68
2025-09-21 23:53:59.631080,848,0.68
2025-09-21 23:53:59.641714,848,0.68
2025-09-21 23:53:59.651837,843,0.68
2025-09-21 23:53:59.662387,847,0.68
2025-09-21 23:53:59.672754,848,0.68
2025-09-21 23:53:59.683198,845,0.68
2025-09-21 23:53:59.693489,837,0.67
2025-09-21 23:53:59.703960,846,0.68
2025-09-21 23:53:59.714346,838,0.68
2025-09-21 23:53:59.724905,844,0.68
2025-09-21 23:53:59.735232,844,0.68
2025-09-21 23:53:59.745786,845,0.68
2025-09-21 23:53:59.756158,842,0.68
2025-09-21 23:53:59.766756,846,0.68
2025-09-21 23:53:59.776859,848,0.68
2025-09-21 23:53:59.787332,838,0.68
2025-09-21 23:53:59.797754,848,0.68
2025-09-21 23:53:59.808060,846,0.68
2025-09-21 23:53:59.818538,848,0.68
2025-09-21 23:53:59.829232,846,0.68
2025-09-21 23:53:59.839279,849,0.68
2025-09-21 23:53:59.849773,847,0.68
2025-09-21 23:53:59.860109,842,0.68
2025-09-21 23:53:59.870606,845,0.68
2025-09-21 23:53:59.880965,848,0.68
2025-09-21 23:53:59.891347,843,0.68
2025-09-21 23:53:59.901856,845,0.68
2025-09-21 23:53:59.912139,851,0.69
2025-09-21 23:53:59.922682,846,0.68
2025-09-21 23:53:59.933182,853,0.69
2025-09-21 23:53:59.943402,847,0.68
2025-09-21 23:53:59.953851,850,0.68
2025-09-21 23:53:59.964252,848,0.68
2025-09-21 23:53:59.974738,843,0.68
2025-09-21 23:53:59.985209,848,0.68
2025-09-21 23:53:59.995578,845,0.68
2025-09-21 23:54:00.005966,855,0.69
2025-09-21 23:54:00.016310,848,0.68
2025-09-21 23:54:00.026749,845,0.68
2025-09-21 23:54:00.037131,847,0.68
2025-09-21 23:54:00.047624,854,0.69
2025-09-21 23:54:00.058000,838,0.68
2025-09-21 23:54:00.068316,848,0.68
2025-09-21 23:54:00.078778,848,0.68
2025-09-21 23:54:00.089197,843,0.68
2025-09-21 23:54:00.099609,848,0.68
2025-09-21 23:54:00.110090,845,0.68
2025-09-21 23:54:00.120433,846,0.68
2025-09-21 23:54:00.130815,847,0.68
2025-09-21 23:54:00.141267,848,0.68
2025-09-21 23:54:00.151643,834,0.67
2025-09-21 23:54:00.162189,851,0.69
2025-09-21 23:54:00.172507,848,0.68
2025-09-21 23:54:00.182911,846,0.68
2025-09-21 23:54:00.193297,848,0.68
2025-09-21 23:54:00.203697,852,0.69
2025-09-21 23:54:00.214092,848,0.68
2025-09-21 23:54:00.224513,848,0.68
2025-09-21 23:54:00.235113,836,0.67
2025-09-21 23:54:00.245443,843,0.68
2025-09-21 23:54:00.255884,852,0.69
2025-09-21 23:54:00.266197,848,0.68
2025-09-21 23:54:00.276623,844,0.68
2025-09-21 23:54:00.287072,848,0.68
2025-09-21 23:54:00.297433,847,0.68
2025-09-21 23:54:00.307958,843,0.68
2025-09-21 23:54:00.318304,856,0.69
2025-09-21 23:54:00.328685,848,0.68
2025-09-21 23:54:00.339112,847,0.68
2025-09-21 23:54:00.349509,847,0.68
2025-09-21 23:54:00.359880,838,0.68
2025-09-21 23:54:00.370327,847,0.68
2025-09-21 23:54:00.380770,838,0.68
2025-09-21 23:54:00.391202,844,0.68
2025-09-21 23:54:00.401583,848,0.68
2025-09-21 23:54:00.412006,842,0.68
2025-09-21 23:54:00.422425,843,0.68
2025-09-21 23:54:00.432797,850,0.68
2025-09-21 23:54:00.443217,846,0.68
2025-09-21 23:54:00.453641,848,0.68
2025-09-21 23:54:00.464103,845,0.68
2025-09-21 23:54:00.474563,853,0.69
2025-09-21 23:54:00.485019,838,0.68
2025-09-21 23:54:00.495323,848,0.68
2025-09-21 23:54:00.505715,846,0.68
2025-09-21 23:54:00.516160,848,0.68
2025-09-21 23:54:00.526521,844,0.68
2025-09-21 23:54:00.536885,848,0.68
2025-09-21 23:54:00.547353,853,0.69
2025-09-21 23:54:00.557819,842,0.68
2025-09-21 23:54:00.568129,838,0.68
2025-09-21 23:54:00.578687,848,0.68
2025-09-21 23:54:00.589014,845,0.68
2025-09-21 23:54:00.599400,855,0.69
2025-09-21 23:54:00.609956,835,0.67
2025-09-21 23:54:00.620334,846,0.68
2025-09-21 23:54:00.630763,850,0.68
2025-09-21 23:54:00.641205,841,0.68
2025-09-21 23:54:00.651440,848,0.68
2025-09-21 23:54:00.662005,845,0.68
2025-09-21 23:54:00.672280,846,0.68
2025-09-21 23:54:00.683879,2407,1.94
2025-09-21 23:54:00.695235,4095,3.3
2025-09-21 23:54:00.705717,844,0.68
2025-09-21 23:54:00.716049,848,0.68
2025-09-21 23:54:00.726763,853,0.69
2025-09-21 23:54:00.736817,845,0.68
2025-09-21 23:54:00.747230,845,0.68
2025-09-21 23:54:00.757778,842,0.68
2025-09-21 23:54:00.768062,843,0.68
2025-09-21 23:54:00.778517,848,0.68
2025-09-21 23:54:00.788915,844,0.68
2025-09-21 23:54:00.799337,844,0.68
2025-09-21 23:54:00.809741,843,0.68
2025-09-21 23:54:00.820152,830,0.67
2025-09-21 23:54:00.830574,844,0.68
2025-09-21 23:54:00.841132,849,0.68
2025-09-21 23:54:00.851513,848,0.68
2025-09-21 23:54:00.861773,855,0.69
2025-09-21 23:54:00.872309,854,0.69
2025-09-21 23:54:00.882625,844,0.68
2025-09-21 23:54:00.893150,850,0.68
2025-09-21 23:54:00.903500,850,0.68
2025-09-21 23:54:00.913818,841,0.68
2025-09-21 23:54:00.924233,849,0.68
2025-09-21 23:54:00.934640,848,0.68
2025-09-21 23:54:00.945072,838,0.68
2025-09-21 23:54:00.955630,837,0.67
2025-09-21 23:54:00.965890,835,0.67
2025-09-21 23:54:00.976323,842,0.68
2025-09-21 23:54:00.986858,848,0.68
2025-09-21 23:54:00.997235,848,0.68
2025-09-21 23:54:01.007611,848,0.68
2025-09-21 23:54:01.018271,834,0.67
2025-09-21 23:54:01.028523,848,0.68
2025-09-21 23:54:01.038931,826,0.67
2025-09-21 23:54:01.049241,845,0.68
2025-09-21 23:54:01.059619,843,0.68
2025-09-21 23:54:01.070065,848,0.68
2025-09-21 23:54:01.080657,848,0.68
2025-09-21 23:54:01.090982,861,0.69
2025-09-21 23:54:01.101238,848,0.68
2025-09-21 23:54:01.111687,795,0.64
2025-09-21 23:54:01.122075,795,0.64
2025-09-21 23:54:01.132527,835,0.67
2025-09-21 23:54:01.143069,816,0.66
2025-09-21 23:54:01.153310,851,0.69
2025-09-21 23:54:01.163859,807,0.65
2025-09-21 23:54:01.174166,842,0.68
2025-09-21 23:54:01.184633,853,0.69
2025-09-21 23:54:01.195046,847,0.68
2025-09-21 23:54:01.205401,816,0.66
2025-09-21 23:54:01.215901,817,0.66
2025-09-21 23:54:01.226398,851,0.69
2025-09-21 23:54:01.236678,848,0.68
2025-09-21 23:54:01.247064,845,0.68
2025-09-21 23:54:01.257457,847,0.68
2025-09-21 23:54:01.267855,877,0.71
2025-09-21 23:54:01.278575,847,0.68
2025-09-21 23:54:01.288684,853,0.69
2025-09-21 23:54:01.299140,853,0.69
2025-09-21 23:54:01.309555,862,0.69
2025-09-21 23:54:01.320111,839,0.68
2025-09-21 23:54:01.330466,831,0.67
2025-09-21 23:54:01.340786,843,0.68
2025-09-21 23:54:01.351296,828,0.67
2025-09-21 23:54:01.361623,847,0.68
2025-09-21 23:54:01.372145,848,0.68
2025-09-21 23:54:01.382534,834,0.67
2025-09-21 23:54:01.392877,817,0.66
2025-09-21 23:54:01.403351,842,0.68
2025-09-21 23:54:01.413628,841,0.68
2025-09-21 23:54:01.424205,844,0.68
2025-09-21 23:54:01.434536,887,0.71
2025-09-21 23:54:01.444867,849,0.68
2025-09-21 23:54:01.455279,900,0.73
2025-09-21 23:54:01.465687,853,0.69
2025-09-21 23:54:01.476172,846,0.68
2025-09-21 23:54:01.486515,855,0.69
2025-09-21 23:54:01.497133,827,0.67
2025-09-21 23:54:01.507492,845,0.68
2025-09-21 23:54:01.517738,854,0.69
2025-09-21 23:54:01.528162,854,0.69
2025-09-21 23:54:01.538588,848,0.68
2025-09-21 23:54:01.549118,839,0.68
2025-09-21 23:54:01.559563,849,0.68
2025-09-21 23:54:01.569810,854,0.69
2025-09-21 23:54:01.580247,842,0.68
2025-09-21 23:54:01.590780,842,0.68
2025-09-21 23:54:01.601063,798,0.64
2025-09-21 23:54:01.611552,837,0.67
2025-09-21 23:54:01.621903,853,0.69
2025-09-21 23:54:01.632292,837,0.67
2025-09-21 23:54:01.642836,899,0.72
2025-09-21 23:54:01.653137,835,0.67
2025-09-21 23:54:01.663516,848,0.68
2025-09-21 23:54:01.676350,845,0.68
2025-09-21 23:54:01.684393,835,0.67
2025-09-21 23:54:01.694911,844,0.68
2025-09-21 23:54:01.705183,849,0.68
2025-09-21 23:54:01.715647,848,0.68
2025-09-21 23:54:01.726183,855,0.69
2025-09-21 23:54:01.736559,838,0.68
2025-09-21 23:54:01.746954,857,0.69
2025-09-21 23:54:01.757259,841,0.68
2025-09-21 23:54:01.767636,848,0.68
2025-09-21 23:54:01.779126,4095,3.3
2025-09-21 23:54:01.790702,4095,3.3
2025-09-21 23:54:01.802202,4095,3.3
2025-09-21 23:54:01.813486,1962,1.58
2025-09-21 23:54:01.825034,1083,0.87
2025-09-21 23:54:01.835362,651,0.52
2025-09-21 23:54:01.845884,506,0.41
2025-09-21 23:54:01.856140,241,0.19
2025-09-21 23:54:01.866562,248,0.2
2025-09-21 23:54:01.876415,16,0.01
2025-09-21 23:54:01.884285,0,0.0
2025-09-21 23:54:01.893798,17,0.01
2025-09-21 23:54:01.903099,54,0.04
2025-09-21 23:54:01.913560,220,0.18
2025-09-21 23:54:01.923888,505,0.41
2025-09-21 23:54:01.934264,401,0.32
2025-09-21 23:54:01.944697,479,0.39
2025-09-21 23:54:01.955067,272,0.22
2025-09-21 23:54:01.965591,260,0.21
2025-09-21 23:54:01.975913,170,0.14
2025-09-21 23:54:01.986460,145,0.12
2025-09-21 23:54:01.994695,0,0.0
2025-09-21 23:54:02.004082,96,0.08
2025-09-21 23:54:02.013534,17,0.01
2025-09-21 23:54:02.023861,128,0.1
2025-09-21 23:54:02.033173,77,0.06
2025-09-21 23:54:02.043597,144,0.12
2025-09-21 23:54:02.053079,13,0.01
2025-09-21 23:54:02.063488,174,0.14
2025-09-21 23:54:02.073807,323,0.26
2025-09-21 23:54:02.084190,464,0.37
2025-09-21 23:54:02.094614,560,0.45
2025-09-21 23:54:02.105138,573,0.46
2025-09-21 23:54:02.115429,605,0.49
2025-09-21 23:54:02.125859,579,0.47
2025-09-21 23:54:02.136262,371,0.3
2025-09-21 23:54:02.147049,421,0.34
2025-09-21 23:54:02.157061,247,0.2
2025-09-21 23:54:02.167631,367,0.3
2025-09-21 23:54:02.176980,99,0.08
2025-09-21 23:54:02.186357,59,0.05
2025-09-21 23:54:02.194592,0,0.0
2025-09-21 23:54:02.205049,160,0.13
2025-09-21 23:54:02.215435,202,0.16
2025-09-21 23:54:02.225825,231,0.19
2025-09-21 23:54:02.236356,279,0.22
2025-09-21 23:54:02.246640,304,0.24
2025-09-21 23:54:02.257129,362,0.29
2025-09-21 23:54:02.267448,476,0.38
2025-09-21 23:54:02.278024,497,0.4
2025-09-21 23:54:02.288287,499,0.4
2025-09-21 23:54:02.298735,400,0.32
2025-09-21 23:54:02.309168,260,0.21
2025-09-21 23:54:02.319516,117,0.09
2025-09-21 23:54:02.328887,42,0.03
2025-09-21 23:54:02.339431,109,0.09
2025-09-21 23:54:02.349731,144,0.12
2025-09-21 23:54:02.360115,182,0.15
2025-09-21 23:54:02.369636,16,0.01
2025-09-21 23:54:02.379016,67,0.05
2025-09-21 23:54:02.389277,209,0.17
2025-09-21 23:54:02.399830,315,0.25
2025-09-21 23:54:02.410128,169,0.14
2025-09-21 23:54:02.419506,33,0.03
2025-09-21 23:54:02.430005,241,0.19
2025-09-21 23:54:02.438310,0,0.0
2025-09-21 23:54:02.448658,717,0.58
2025-09-21 23:54:02.459137,331,0.27
2025-09-21 23:54:02.469478,347,0.28
2025-09-21 23:54:02.479918,483,0.39
2025-09-21 23:54:02.490270,605,0.49
2025-09-21 23:54:02.500749,306,0.25
2025-09-21 23:54:02.511127,511,0.41
2025-09-21 23:54:02.521661,322,0.26
2025-09-21 23:54:02.532001,157,0.13
2025-09-21 23:54:02.541319,94,0.08
2025-09-21 23:54:02.551713,108,0.09
2025-09-21 23:54:02.562275,115,0.09
2025-09-21 23:54:02.571528,19,0.02
2025-09-21 23:54:02.582131,259,0.21
2025-09-21 23:54:02.592335,187,0.15
2025-09-21 23:54:02.602786,299,0.24
2025-09-21 23:54:02.613187,315,0.25
2025-09-21 23:54:02.623708,559,0.45
2025-09-21 23:54:02.634037,851,0.69
2025-09-21 23:54:02.644559,491,0.4
2025-09-21 23:54:02.654786,557,0.45
2025-09-21 23:54:02.665271,223,0.18
2025-09-21 23:54:02.675633,215,0.17
2025-09-21 23:54:02.686101,236,0.19
2025-09-21 23:54:02.695533,51,0.04
2025-09-21 23:54:02.704967,99,0.08
2025-09-21 23:54:02.715210,279,0.22
2025-09-21 23:54:02.725611,121,0.1
2025-09-21 23:54:02.736176,144,0.12
2025-09-21 23:54:02.745531,96,0.08
2025-09-21 23:54:02.755808,332,0.27
2025-09-21 23:54:02.766233,151,0.12
2025-09-21 23:54:02.776636,206,0.17
2025-09-21 23:54:02.786120,81,0.07
2025-09-21 23:54:02.796462,151,0.12
2025-09-21 23:54:02.806826,128,0.1
2025-09-21 23:54:02.817391,291,0.23
2025-09-21 23:54:02.827782,299,0.24
2025-09-21 23:54:02.838210,257,0.21
2025-09-21 23:54:02.848539,112,0.09
2025-09-21 23:54:02.858123,60,0.05
2025-09-21 23:54:02.866259,8,0.01
2025-09-21 23:54:02.875556,48,0.04
2025-09-21 23:54:02.884988,77,0.06
2025-09-21 23:54:02.895490,207,0.17
2025-09-21 23:54:02.905738,158,0.13
2025-09-21 23:54:02.916278,208,0.17
2025-09-21 23:54:02.926716,185,0.15
2025-09-21 23:54:02.937012,144,0.12
2025-09-21 23:54:02.947393,141,0.11
2025-09-21 23:54:02.955761,0,0.0
2025-09-21 23:54:02.965141,75,0.06
2025-09-21 23:54:02.975524,253,0.2
2025-09-21 23:54:02.986010,414,0.33
2025-09-21 23:54:02.996367,387,0.31
2025-09-21 23:54:03.006755,221,0.18
2025-09-21 23:54:03.016160,98,0.08
2025-09-21 23:54:03.025498,95,0.08
2025-09-21 23:54:03.035886,181,0.15
2025-09-21 23:54:03.046288,180,0.15
2025-09-21 23:54:03.055800,22,0.02
2025-09-21 23:54:03.065076,71,0.06
2025-09-21 23:54:03.074699,30,0.02
2025-09-21 23:54:03.082736,0,0.0
2025-09-21 23:54:03.092141,97,0.08
2025-09-21 23:54:03.101634,30,0.02
2025-09-21 23:54:03.111889,145,0.12
2025-09-21 23:54:03.121435,74,0.06
2025-09-21 23:54:03.131698,189,0.15
2025-09-21 23:54:03.142116,176,0.14
2025-09-21 23:54:03.152512,208,0.17
2025-09-21 23:54:03.162992,253,0.2
2025-09-21 23:54:03.173476,343,0.28
2025-09-21 23:54:03.183832,471,0.38
2025-09-21 23:54:03.194296,509,0.41
2025-09-21 23:54:03.204561,509,0.41
2025-09-21 23:54:03.215130,455,0.37
2025-09-21 23:54:03.225418,361,0.29
2025-09-21 23:54:03.235957,347,0.28
2025-09-21 23:54:03.246262,115,0.09
2025-09-21 23:54:03.256790,837,0.67
2025-09-21 23:54:03.267142,849,0.68
2025-09-21 23:54:03.277604,838,0.68
2025-09-21 23:54:03.289024,4095,3.3
2025-09-21 23:54:03.300420,4095,3.3
2025-09-21 23:54:03.311867,4095,3.3
2025-09-21 23:54:03.323331,1898,1.53
2025-09-21 23:54:03.333751,826,0.67
2025-09-21 23:54:03.344228,904,0.73
2025-09-21 23:54:03.354678,481,0.39
2025-09-21 23:54:03.365036,343,0.28
2025-09-21 23:54:03.375369,368,0.3
2025-09-21 23:54:03.385737,421,0.34
2025-09-21 23:54:03.396186,401,0.32
2025-09-21 23:54:03.406559,531,0.43
2025-09-21 23:54:03.417064,202,0.16
2025-09-21 23:54:03.427493,215,0.17
2025-09-21 23:54:03.436846,54,0.04
2025-09-21 23:54:03.447251,314,0.25
2025-09-21 23:54:03.457618,203,0.16
2025-09-21 23:54:03.468206,302,0.24
2025-09-21 23:54:03.478425,140,0.11
2025-09-21 23:54:03.488832,288,0.23
2025-09-21 23:54:03.498276,86,0.07
2025-09-21 23:54:03.508658,145,0.12
2025-09-21 23:54:03.516985,8,0.01
2025-09-21 23:54:03.527506,176,0.14
2025-09-21 23:54:03.537856,141,0.11
2025-09-21 23:54:03.548304,321,0.26
2025-09-21 23:54:03.558644,204,0.16
2025-09-21 23:54:03.569185,615,0.5
2025-09-21 23:54:03.579555,607,0.49
2025-09-21 23:54:03.589817,548,0.44
2025-09-21 23:54:03.600255,573,0.46
2025-09-21 23:54:03.611467,560,0.45
2025-09-21 23:54:03.621121,462,0.37
2025-09-21 23:54:03.631640,479,0.39
2025-09-21 23:54:03.641912,309,0.25
2025-09-21 23:54:03.652311,379,0.31
2025-09-21 23:54:03.662715,217,0.17
2025-09-21 23:54:03.672234,84,0.07
2025-09-21 23:54:03.682602,100,0.08
2025-09-21 23:54:03.692979,257,0.21
2025-09-21 23:54:03.703341,187,0.15
2025-09-21 23:54:03.713751,335,0.27
2025-09-21 23:54:03.724160,367,0.3
2025-09-21 23:54:03.734563,487,0.39
2025-09-21 23:54:03.745194,295,0.24
2025-09-21 23:54:03.755401,611,0.49
2025-09-21 23:54:03.765900,393,0.32
2025-09-21 23:54:03.776225,575,0.46
2025-09-21 23:54:03.786781,368,0.3
2025-09-21 23:54:03.797070,401,0.32
2025-09-21 23:54:03.806533,11,0.01
2025-09-21 23:54:03.814748,0,0.0
2025-09-21 23:54:03.824254,35,0.03
2025-09-21 23:54:03.834679,226,0.18
2025-09-21 23:54:03.845154,463,0.37
2025-09-21 23:54:03.855475,231,0.19
2025-09-21 23:54:03.865773,245,0.2
2025-09-21 23:54:03.876172,359,0.29
2025-09-21 23:54:03.886591,144,0.12
2025-09-21 23:54:03.897204,227,0.18
2025-09-21 23:54:03.906507,63,0.05
2025-09-21 23:54:03.916938,266,0.21
2025-09-21 23:54:03.927336,218,0.18
2025-09-21 23:54:03.937753,478,0.39
2025-09-21 23:54:03.948169,288,0.23
2025-09-21 23:54:03.958479,276,0.22
2025-09-21 23:54:03.968990,266,0.21
2025-09-21 23:54:03.979266,179,0.14
2025-09-21 23:54:03.989754,207,0.17
2025-09-21 23:54:04.000137,257,0.21
2025-09-21 23:54:04.010546,161,0.13
2025-09-21 23:54:04.021007,309,0.25
2025-09-21 23:54:04.031544,393,0.32
2025-09-21 23:54:04.041784,325,0.26
2025-09-21 23:54:04.052304,199,0.16
2025-09-21 23:54:04.062597,262,0.21
2025-09-21 23:54:04.073155,129,0.1
2025-09-21 23:54:04.083522,294,0.24
2025-09-21 23:54:04.093799,378,0.3
2025-09-21 23:54:04.104357,214,0.17
2025-09-21 23:54:04.114650,440,0.35
2025-09-21 23:54:04.125092,200,0.16
2025-09-21 23:54:04.135582,167,0.13
2025-09-21 23:54:04.145970,156,0.13
2025-09-21 23:54:04.156392,105,0.08
2025-09-21 23:54:04.166694,257,0.21
2025-09-21 23:54:04.177235,368,0.3
2025-09-21 23:54:04.187517,484,0.39
2025-09-21 23:54:04.197970,479,0.39
2025-09-21 23:54:04.208372,494,0.4
2025-09-21 23:54:04.218756,467,0.38
2025-09-21 23:54:04.229305,301,0.24
2025-09-21 23:54:04.239731,306,0.25
2025-09-21 23:54:04.250069,144,0.12
2025-09-21 23:54:04.259493,75,0.06
2025-09-21 23:54:04.268713,53,0.04
2025-09-21 23:54:04.277214,7,0.01
2025-09-21 23:54:04.286436,95,0.08
2025-09-21 23:54:04.296989,251,0.2
2025-09-21 23:54:04.306352,11,0.01
2025-09-21 23:54:04.314630,0,0.0
2025-09-21 23:54:04.322928,0,0.0
